sample_index,device_timestamp_ms,host_timestamp_ms,host_monotonic_ns,ir,red
2128,21280.0,1790707266605,12215716614200,1128.0,24.0
2129,21290.0,1790707266606,12215718089300,1056.0,38.0
2130,21300.0,1790707266608,12215719739600,1008.0,44.0
2131,21310.0,1790707266642,12215753732400,975.0,26.0
2132,21320.0,1790707266643,12215755450700,963.0,16.0
2133,21330.0,1790707266646,12215757810600,951.0,13.0
2134,21340.0,1790707266648,12215760091000,938.0,27.0
2135,21350.0,1790707266653,12215764752500,932.0,37.0
2136,21360.0,1790707266655,12215766989700,924.0,35.0
2137,21370.0,1790707266656,12215768145400,905.0,18.0
2138,21380.0,1790707266662,12215773699500,891.0,31.0
2139,21390.0,1790707266671,12215783323200,889.0,30.0
2140,21400.0,1790707266680,12215792012900,893.0,21.0
2141,21410.0,1790707266690,12215802191300,879.0,14.0
2142,21420.0,1790707266700,12215812112200,884.0,26.0
2143,21430.0,1790707266710,12215822065500,871.0,22.0
2144,21440.0,1790707266734,12215845559900,890.0,21.0
2145,21450.0,1790707266738,12215849778300,883.0,31.0
2146,21460.0,1790707266740,12215852098100,876.0,29.0
2147,21470.0,1790707266751,12215863407100,888.0,28.0
2148,21480.0,1790707266762,12215873473300,867.0,33.0
2149,21490.0,1790707266781,12215892838400,872.0,33.0
2150,21500.0,1790707266783,12215894803900,862.0,18.0
2151,21510.0,1790707266791,12215902487000,872.0,13.0
2152,21520.0,1790707266802,12215913976500,874.0,17.0
2153,21530.0,1790707266811,12215922765300,877.0,0.0
2154,21540.0,1790707266821,12215932621600,876.0,4.0
2155,21550.0,1790707266830,12215942256500,888.0,3.0
2156,21560.0,1790707266841,12215952612600,890.0,9.0
2157,21570.0,1790707266851,12215962562900,876.0,9.0
2158,21580.0,1790707266860,12215972420700,867.0,10.0
2159,21590.0,1790707266871,12215983171800,857.0,12.0
2160,21600.0,1790707266881,12215992876200,846.0,13.0
2161,21610.0,1790707266891,12216002534800,857.0,0.0
2162,21620.0,1790707266901,12216012489400,860.0,0.0
2163,21630.0,1790707266911,12216022598700,868.0,0.0
2164,21640.0,1790707266920,12216032436300,864.0,0.0
2165,21650.0,1790707266930,12216042449500,854.0,0.0
2166,21660.0,1790707266941,12216053001200,874.0,13.0
2167,21670.0,1790707266953,12216065412500,846.0,6.0
2168,21680.0,1790707266961,12216072748000,845.0,5.0
2169,21690.0,1790707266971,12216083040700,853.0,27.0
2170,21700.0,1790707266981,12216093175000,842.0,12.0
2171,21710.0,1790707266994,12216106055500,846.0,20.0
2172,21720.0,1790707267001,12216112522700,852.0,22.0
2173,21730.0,1790707267011,12216122542500,856.0,20.0
2174,21740.0,1790707267021,12216133136800,852.0,19.0
2175,21750.0,1790707267035,12216147401000,849.0,16.0
2176,21760.0,1790707267041,12216152788700,859.0,35.0
2177,21770.0,1790707267089,12216200520200,872.0,26.0
2178,21780.0,1790707267090,12216201792600,857.0,36.0
2179,21790.0,1790707267109,12216221401400,859.0,53.0
2180,21800.0,1790707267112,12216223696200,865.0,34.0
2181,21810.0,1790707267113,12216224736800,886.0,35.0
2182,21820.0,1790707267114,12216226073700,878.0,20.0
2183,21830.0,1790707267115,12216227177600,884.0,28.0
2184,21840.0,1790707267139,12216251205600,871.0,46.0
2185,21850.0,1790707267141,12216252959800,873.0,45.0
2186,21860.0,1790707267142,12216254385200,861.0,48.0
2187,21870.0,1790707267151,12216263057500,872.0,30.0
2188,21880.0,1790707267161,12216273313100,869.0,40.0
2189,21890.0,1790707267171,12216283384100,888.0,36.0
2190,21900.0,1790707267181,12216292827100,877.0,50.0
2191,21910.0,1790707267220,12216332072100,898.0,34.0
2192,21920.0,1790707267221,12216333393400,878.0,49.0
2193,21930.0,1790707267223,12216334744400,877.0,36.0
2194,21940.0,1790707267224,12216336354800,895.0,26.0
2195,21950.0,1790707267232,12216343734400,881.0,30.0
2196,21960.0,1790707267241,12216353350600,877.0,37.0
2197,21970.0,1790707267252,12216364259100,866.0,58.0
2198,21980.0,1790707267273,12216384845700,876.0,38.0
2199,21990.0,1790707267274,12216386089900,866.0,38.0
2200,22000.0,1790707267281,12216393256100,871.0,29.0
2201,22010.0,1790707267299,12216411022400,879.0,28.0
2202,22020.0,1790707267302,12216413577900,878.0,30.0
2203,22030.0,1790707267311,12216423335200,890.0,23.0
2204,22040.0,1790707267375,12216487126600,871.0,37.0
2205,22050.0,1790707267378,12216489850500,890.0,23.0
2206,22060.0,1790707267380,12216491626400,879.0,28.0
2207,22070.0,1790707267381,12216493237300,877.0,27.0
2208,22080.0,1790707267383,12216495168400,871.0,33.0
2209,22090.0,1790707267386,12216497483000,881.0,32.0
2210,22100.0,1790707267387,12216499113400,880.0,27.0
2211,22110.0,1790707267392,12216503534900,880.0,8.0
2212,22120.0,1790707267402,12216514115200,865.0,11.0
2213,22130.0,1790707267412,12216524327100,873.0,20.0
2214,22140.0,1790707267422,12216533997900,895.0,24.0
2215,22150.0,1790707267436,12216548173300,896.0,21.0
2216,22160.0,1790707267443,12216554495300,893.0,35.0
2217,22170.0,1790707267453,12216565196800,893.0,21.0
2218,22180.0,1790707267463,12216574796200,888.0,16.0
2219,22190.0,1790707267473,12216585060300,900.0,1.0
2220,22200.0,1790707267483,12216594942600,903.0,18.0
2221,22210.0,1790707267493,12216604475500,905.0,12.0
2222,22220.0,1790707267503,12216615288900,908.0,15.0
2223,22230.0,1790707267513,12216624847300,910.0,12.0
2224,22240.0,1790707267523,12216634613100,921.0,14.0
2225,22250.0,1790707267533,12216644925400,921.0,4.0
2226,22260.0,1790707267543,12216654780000,921.0,26.0
2227,22270.0,1790707267554,12216665467000,930.0,34.0
2228,22280.0,1790707267563,12216674876400,927.0,34.0
2229,22290.0,1790707267573,12216684601600,936.0,31.0
2230,22300.0,1790707267583,12216694616500,951.0,24.0
2231,22310.0,1790707267593,12216704875700,945.0,24.0
2232,22320.0,1790707267602,12216713572500,952.0,21.0
2233,22330.0,1790707267612,12216723895100,977.0,25.0
2234,22340.0,1790707267622,12216733931700,981.0,34.0
2235,22350.0,1790707267632,12216743774800,1001.0,30.0
2236,22360.0,1790707267642,12216753983100,994.0,47.0
2237,22370.0,1790707267652,12216764021400,1021.0,47.0
2238,22380.0,1790707267662,12216773962000,1026.0,41.0
2239,22390.0,1790707267672,12216783857000,1042.0,47.0
2240,22400.0,1790707267682,12216793905500,1066.0,51.0
2241,22410.0,1790707267692,12216803915900,1067.0,41.0
2242,22420.0,1790707267702,12216813961600,1104.0,22.0
2243,22430.0,1790707267712,12216823986300,1134.0,36.0
2244,22440.0,1790707267722,12216834088000,1175.0,40.0
2245,22450.0,1790707267732,12216844100900,1212.0,44.0
2246,22460.0,1790707267742,12216854340300,1282.0,55.0
2247,22470.0,1790707267752,12216864376100,1342.0,49.0
2248,22480.0,1790707267762,12216874293600,1417.0,55.0
2249,22490.0,1790707267777,12216888772600,1518.0,41.0
2250,22500.0,1790707267783,12216894884600,1626.0,39.0
2251,22510.0,1790707267881,12216993111200,1769.0,35.0
2252,22520.0,1790707267886,12216998107300,1955.0,25.0
2253,22530.0,1790707267891,12217002599900,2165.0,24.0
2254,22540.0,1790707267892,12217004012500,2438.0,50.0
2255,22550.0,1790707267893,12217005154400,2825.0,41.0
2256,22560.0,1790707267894,12217006244600,3265.0,39.0
2257,22570.0,1790707267895,12217007283500,3770.0,41.0
2258,22580.0,1790707267896,12217008295900,4384.0,49.0
2259,22590.0,1790707267897,12217009307100,5118.0,41.0
2260,22600.0,1790707267898,12217010363700,5980.0,47.0
2261,22610.0,1790707267901,12217013138100,6929.0,46.0
2262,22620.0,1790707267903,12217014970900,7938.0,43.0
2263,22630.0,1790707267912,12217024424900,9062.0,35.0
2264,22640.0,1790707267923,12217034472600,10347.0,35.0
2265,22650.0,1790707267933,12217044556200,11895.0,30.0
2266,22660.0,1790707267943,12217054501400,14051.0,31.0
2267,22670.0,1790707267953,12217064574700,17211.0,39.0
2268,22680.0,1790707267963,12217074720000,22125.0,41.0
2269,22690.0,1790707267973,12217084927200,30305.0,51.0
2270,22700.0,1790707267983,12217094905700,44899.0,53.0
2271,22710.0,1790707267993,12217104583700,58889.0,45.0
2272,22720.0,1790707268003,12217114468800,75335.0,37.0
2273,22730.0,1790707268013,12217124606100,91735.0,38.0
2274,22740.0,1790707268023,12217134491400,108045.0,39.0
2275,22750.0,1790707268033,12217144641300,124508.0,44.0
2276,22760.0,1790707268043,12217154653000,140703.0,35.0
2277,22770.0,1790707268053,12217165074700,147011.0,33.0
2278,22780.0,1790707268063,12217174640300,142622.0,40.0
2279,22790.0,1790707268073,12217184968200,140129.0,36.0
2280,22800.0,1790707268083,12217194919900,136023.0,37.0
2281,22810.0,1790707268093,12217204988000,127229.0,51.0
2282,22820.0,1790707268103,12217215184500,114644.0,40.0
2283,22830.0,1790707268113,12217225089600,101530.0,45.0
2284,22840.0,1790707268123,12217235172700,91988.0,32.0
2285,22850.0,1790707268133,12217245041900,86701.0,27.0
2286,22860.0,1790707268144,12217255485800,84594.0,46.0
2287,22870.0,1790707268153,12217264916200,84768.0,39.0
2288,22880.0,1790707268164,12217275501600,85916.0,38.0
2289,22890.0,1790707268174,12217285484500,86934.0,53.0
2290,22900.0,1790707268183,12217294849500,87487.0,41.0
2291,22910.0,1790707268193,12217305242300,88054.0,28.0
2292,22920.0,1790707268204,12217315482000,88471.0,35.0
2293,22930.0,1790707268213,12217325332800,88292.0,38.0
2294,22940.0,1790707268224,12217335722800,87857.0,49.0
2295,22950.0,1790707268234,12217345574300,88084.0,32.0
2296,22960.0,1790707268244,12217355789100,89644.0,43.0
2297,22970.0,1790707268254,12217366086400,92896.0,44.0
2298,22980.0,1790707268264,12217376090000,97610.0,41.0
2299,22990.0,1790707268274,12217386227800,103628.0,65.0
2300,23000.0,1790707268284,12217395990300,111406.0,31.0
2301,23010.0,1790707268294,12217406369700,121840.0,20.0
2302,23020.0,1790707268304,12217416273600,135990.0,26.0
2303,23030.0,1790707268314,12217426332100,153868.0,40.0
2304,23040.0,1790707268324,12217436459900,165097.0,20.0
2305,23050.0,1790707268334,12217446067600,162542.0,39.0
2306,23060.0,1790707268345,12217456466600,162839.0,41.0
2307,23070.0,1790707268354,12217466428900,162559.0,60.0
2308,23080.0,1790707268365,12217476793400,162682.0,53.0
2309,23090.0,1790707268375,12217486708800,161740.0,37.0
2310,23100.0,1790707268384,12217496301900,161020.0,41.0
2311,23110.0,1790707268395,12217506626600,160308.0,48.0
2312,23120.0,1790707268405,12217516815500,159901.0,38.0
2313,23130.0,1790707268414,12217526376900,159641.0,40.0
2314,23140.0,1790707268424,12217536357200,159800.0,23.0
2315,23150.0,1790707268434,12217546142300,160008.0,47.0
2316,23160.0,1790707268445,12217556501500,160234.0,51.0
2317,23170.0,1790707268454,12217566452900,160338.0,48.0
2318,23180.0,1790707268465,12217576602100,160461.0,36.0
2319,23190.0,1790707268475,12217586601600,160484.0,54.0
2320,23200.0,1790707268485,12217596605800,160596.0,53.0
2321,23210.0,1790707268495,12217606713800,160650.0,58.0
2322,23220.0,1790707268505,12217616791400,160708.0,40.0
2323,23230.0,1790707268515,12217626811400,160667.0,41.0
2324,23240.0,1790707268525,12217636789100,160672.0,34.0
2325,23250.0,1790707268535,12217646677400,160617.0,43.0
2326,23260.0,1790707268545,12217657104700,160775.0,39.0
2327,23270.0,1790707268555,12217667174400,161055.0,54.0
2328,23280.0,1790707268566,12217677518300,162044.0,44.0
2329,23290.0,1790707268575,12217686859500,163432.0,55.0
2330,23300.0,1790707268585,12217696857900,163508.0,53.0
2331,23310.0,1790707268595,12217706717100,163473.0,48.0
2332,23320.0,1790707268605,12217716823200,163551.0,56.0
2333,23330.0,1790707268615,12217726721400,163829.0,33.0
2334,23340.0,1790707268625,12217736818100,163610.0,31.0
2335,23350.0,1790707268635,12217746730800,163462.0,26.0
2336,23360.0,1790707268645,12217757216800,163761.0,43.0
2337,23370.0,1790707268655,12217767170000,163955.0,55.0
2338,23380.0,1790707268666,12217777497100,163986.0,52.0
2339,23390.0,1790707268676,12217787512700,164024.0,53.0
2340,23400.0,1790707268684,12217795918600,164014.0,50.0
2341,23410.0,1790707268694,12217805913600,164076.0,48.0
2342,23420.0,1790707268704,12217815961900,164177.0,32.0
2343,23430.0,1790707268716,12217827587100,164238.0,36.0
2344,23440.0,1790707268842,12217953535800,164430.0,38.0
2345,23450.0,1790707268843,12217955176800,164439.0,46.0
2346,23460.0,1790707268844,12217956398700,164375.0,50.0
2347,23470.0,1790707268846,12217957572900,164181.0,58.0
2348,23480.0,1790707268847,12217958806100,164032.0,51.0
2349,23490.0,1790707268848,12217960096900,163828.0,60.0
2350,23500.0,1790707268849,12217961427400,163703.0,42.0
2351,23510.0,1790707268851,12217962592300,163380.0,52.0
2352,23520.0,1790707268852,12217963787700,163165.0,38.0
2353,23530.0,1790707268853,12217964953500,162910.0,42.0
2354,23540.0,1790707268854,12217966085100,162799.0,35.0
2355,23550.0,1790707268855,12217967269700,162756.0,39.0
2356,23560.0,1790707268856,12217968358400,162889.0,51.0
2357,23570.0,1790707268857,12217969442900,162902.0,31.0
2358,23580.0,1790707268864,12217976238700,162669.0,61.0
2359,23590.0,1790707268874,12217986390000,162391.0,56.0
2360,23600.0,1790707268884,12217996378800,162371.0,39.0
2361,23610.0,1790707268894,12218006353900,162216.0,34.0
2362,23620.0,1790707268904,12218016403700,162253.0,47.0
2363,23630.0,1790707268915,12218026465300,162568.0,42.0
2364,23640.0,1790707268925,12218036549400,163426.0,38.0
2365,23650.0,1790707268936,12218047585600,163676.0,43.0
2366,23660.0,1790707268946,12218057571800,163716.0,64.0
2367,23670.0,1790707268956,12218067640900,163899.0,60.0
2368,23680.0,1790707268966,12218078319800,163788.0,56.0
2369,23690.0,1790707268976,12218087888200,163669.0,63.0
2370,23700.0,1790707268986,12218097556400,163533.0,34.0
2371,23710.0,1790707268996,12218107666200,163249.0,54.0
2372,23720.0,1790707269006,12218117478200,162908.0,46.0
2373,23730.0,1790707269015,12218127254200,162619.0,46.0
2374,23740.0,1790707269025,12218136803200,162337.0,50.0
2375,23750.0,1790707269035,12218147112200,162213.0,58.0
2376,23760.0,1790707269045,12218157104300,162168.0,54.0
2377,23770.0,1790707269055,12218167145700,162180.0,69.0
2378,23780.0,1790707269065,12218177111700,162259.0,62.0
2379,23790.0,1790707269076,12218187547400,162399.0,61.0
2380,23800.0,1790707269086,12218197652200,162580.0,61.0
2381,23810.0,1790707269096,12218207852000,162787.0,49.0
2382,23820.0,1790707269106,12218217587300,162978.0,47.0
2383,23830.0,1790707269116,12218227558400,163035.0,65.0
2384,23840.0,1790707269126,12218237949200,163039.0,56.0
2385,23850.0,1790707269136,12218247684400,162843.0,62.0
2386,23860.0,1790707269146,12218257622000,162560.0,50.0
2387,23870.0,1790707269156,12218267977800,162165.0,47.0
2388,23880.0,1790707269166,12218277992800,161983.0,48.0
2389,23890.0,1790707269176,12218287815600,162211.0,67.0
2390,23900.0,1790707269186,12218297904400,162428.0,36.0
2391,23910.0,1790707269196,12218308142400,162454.0,45.0
2392,23920.0,1790707269207,12218318553000,162360.0,42.0
2393,23930.0,1790707269217,12218328556200,162348.0,36.0
2394,23940.0,1790707269227,12218338494400,162501.0,40.0
2395,23950.0,1790707269237,12218348532200,162536.0,44.0
2396,23960.0,1790707269246,12218358353700,162380.0,51.0
2397,23970.0,1790707269257,12218368638400,162147.0,61.0
2398,23980.0,1790707269266,12218378342200,161913.0,51.0
2399,23990.0,1790707269277,12218388676500,161590.0,44.0
2400,24000.0,1790707269287,12218398593500,161194.0,33.0
2401,24010.0,1790707269297,12218408670400,161085.0,45.0
2402,24020.0,1790707269307,12218418705200,161249.0,38.0
2403,24030.0,1790707269317,12218428566400,161321.0,49.0
2404,24040.0,1790707269327,12218438606900,161444.0,51.0
2405,24050.0,1790707269337,12218448928200,161754.0,45.0
2406,24060.0,1790707269347,12218458935000,162160.0,45.0
2407,24070.0,1790707269357,12218469156800,162431.0,50.0
2408,24080.0,1790707269367,12218478715800,162562.0,42.0
2409,24090.0,1790707269377,12218489194500,162695.0,51.0
2410,24100.0,1790707269387,12218498702200,162704.0,39.0
2411,24110.0,1790707269397,12218508766300,162553.0,45.0
2412,24120.0,1790707269407,12218518731200,162270.0,53.0
2413,24130.0,1790707269417,12218528579300,162106.0,40.0
2414,24140.0,1790707269427,12218538856300,162224.0,39.0
2415,24150.0,1790707269437,12218549004000,162622.0,44.0
2416,24160.0,1790707269447,12218558978200,162967.0,40.0
2417,24170.0,1790707269458,12218570130300,163087.0,46.0
2418,24180.0,1790707269467,12218578720100,163161.0,55.0
2419,24190.0,1790707269477,12218589005400,163284.0,50.0
2420,24200.0,1790707269487,12218598804300,163407.0,53.0
2421,24210.0,1790707269497,12218609434600,163342.0,48.0
2422,24220.0,1790707269507,12218619362100,163193.0,47.0
2423,24230.0,1790707269517,12218628957100,163096.0,44.0
2424,24240.0,1790707269527,12218639450700,162931.0,33.0
2425,24250.0,1790707269537,12218649460400,162779.0,40.0
2426,24260.0,1790707269548,12218659561400,162655.0,44.0
2427,24270.0,1790707269558,12218669515400,162815.0,49.0
2428,24280.0,1790707269567,12218679075300,163058.0,53.0
2429,24290.0,1790707269578,12218689664400,163245.0,57.0
2430,24300.0,1790707269587,12218699293200,163300.0,36.0
2431,24310.0,1790707269598,12218709604200,163292.0,43.0
2432,24320.0,1790707269607,12218719413000,163155.0,36.0
2433,24330.0,1790707269617,12218728977900,162973.0,36.0
2434,24340.0,1790707269628,12218739548400,162840.0,32.0
2435,24350.0,1790707269638,12218749575200,162787.0,40.0
2436,24360.0,1790707269647,12218759055900,162642.0,49.0
2437,24370.0,1790707269658,12218769598000,162527.0,36.0
2438,24380.0,1790707269667,12218779189600,162497.0,48.0
2439,24390.0,1790707269678,12218789944700,162546.0,47.0
2440,24400.0,1790707269688,12218799722500,162500.0,41.0
2441,24410.0,1790707269698,12218809673400,162553.0,37.0
2442,24420.0,1790707269708,12218819765500,162759.0,48.0
2443,24430.0,1790707269736,12218848219000,163023.0,38.0
2444,24440.0,1790707269738,12218850220400,163146.0,27.0
2445,24450.0,1790707269739,12218851420300,163320.0,56.0
2446,24460.0,1790707269865,12218977220700,163471.0,51.0
2447,24470.0,1790707269868,12218979722000,163597.0,28.0
2448,24480.0,1790707269869,12218981038300,163596.0,42.0
2449,24490.0,1790707269870,12218982225700,163511.0,34.0
2450,24500.0,1790707269872,12218983491100,163472.0,60.0
2451,24510.0,1790707269873,12218984653500,163479.0,37.0
2452,24520.0,1790707269874,12218985831700,163492.0,39.0
2453,24530.0,1790707269875,12218986987200,163594.0,41.0
2454,24540.0,1790707269876,12218988215900,163610.0,37.0
2455,24550.0,1790707269878,12218989619500,163655.0,38.0
2456,24560.0,1790707269879,12218990885500,163702.0,36.0
2457,24570.0,1790707269882,12218994208300,163686.0,42.0
2458,24580.0,1790707269884,12218995582000,163477.0,42.0
2459,24590.0,1790707269885,12218996698500,163285.0,39.0
2460,24600.0,1790707269886,12218998303300,163143.0,30.0
2461,24610.0,1790707269896,12219008398600,163194.0,43.0
2462,24620.0,1790707269907,12219018477000,163338.0,43.0
2463,24630.0,1790707269917,12219028496900,163451.0,37.0
2464,24640.0,1790707269927,12219038748800,163518.0,42.0
2465,24650.0,1790707269937,12219048552800,163658.0,42.0
2466,24660.0,1790707269947,12219058630600,163719.0,42.0
2467,24670.0,1790707269957,12219069067500,163740.0,50.0
2468,24680.0,1790707269967,12219078867200,163582.0,44.0
2469,24690.0,1790707269977,12219089119500,163367.0,48.0
2470,24700.0,1790707269987,12219098543900,163030.0,42.0
2471,24710.0,1790707269997,12219108717200,162659.0,26.0
2472,24720.0,1790707270007,12219118762300,162340.0,44.0
2473,24730.0,1790707270017,12219128899400,162086.0,34.0
2474,24740.0,1790707270027,12219139019100,161903.0,42.0
2475,24750.0,1790707270038,12219149487400,161906.0,35.0
2476,24760.0,1790707270048,12219159720300,161959.0,29.0
2477,24770.0,1790707270058,12219169794000,162149.0,24.0
2478,24780.0,1790707270068,12219179908900,162356.0,40.0
2479,24790.0,1790707270078,12219190437900,162653.0,33.0
2480,24800.0,1790707270089,12219200839000,162860.0,43.0
2481,24810.0,1790707270099,12219210797900,162936.0,33.0
2482,24820.0,1790707270109,12219220774900,162633.0,36.0
2483,24830.0,1790707270119,12219230901400,162445.0,29.0
2484,24840.0,1790707270129,12219241157400,162214.0,40.0
2485,24850.0,1790707270139,12219251121800,162134.0,44.0
2486,24860.0,1790707270149,12219261088100,162190.0,48.0
2487,24870.0,1790707270159,12219271120200,162331.0,52.0
2488,24880.0,1790707270169,12219281082500,162371.0,51.0
2489,24890.0,1790707270179,12219290486200,162396.0,40.0
2490,24900.0,1790707270189,12219300913400,162393.0,40.0
2491,24910.0,1790707270199,12219310807700,162392.0,32.0
2492,24920.0,1790707270209,12219321147600,162056.0,35.0
2493,24930.0,1790707270218,12219329535700,161692.0,33.0
2494,24940.0,1790707270228,12219339546300,161334.0,41.0
2495,24950.0,1790707270238,12219349699900,161085.0,35.0
2496,24960.0,1790707270248,12219359832700,160818.0,47.0
2497,24970.0,1790707270258,12219369875100,160828.0,41.0
2498,24980.0,1790707270268,12219380036300,160866.0,28.0
2499,24990.0,1790707270278,12219390122500,161071.0,41.0
2500,25000.0,1790707270288,12219400380000,161114.0,31.0
2501,25010.0,1790707270298,12219410429100,161154.0,24.0
2502,25020.0,1790707270308,12219420060800,161079.0,50.0
2503,25030.0,1790707270318,12219430002500,161063.0,44.0
2504,25040.0,1790707270328,12219439784100,160894.0,46.0
2505,25050.0,1790707270338,12219449531600,160796.0,41.0
2506,25060.0,1790707270348,12219459697200,160696.0,41.0
2507,25070.0,1790707270358,12219469735400,160812.0,46.0
2508,25080.0,1790707270368,12219479650600,160971.0,42.0
2509,25090.0,1790707270378,12219489733200,161253.0,30.0
2510,25100.0,1790707270388,12219499867100,161410.0,48.0
2511,25110.0,1790707270398,12219509650200,161555.0,35.0
2512,25120.0,1790707270408,12219519739300,161509.0,30.0
2513,25130.0,1790707270418,12219529851400,161481.0,35.0
2514,25140.0,1790707270428,12219540068700,161299.0,38.0
2515,25150.0,1790707270438,12219550359600,161243.0,49.0
2516,25160.0,1790707270449,12219560497400,161093.0,39.0
2517,25170.0,1790707270459,12219570726900,160964.0,52.0
2518,25180.0,1790707270469,12219580727300,161011.0,35.0
2519,25190.0,1790707270478,12219589849100,161019.0,26.0
2520,25200.0,1790707270488,12219599968100,161010.0,39.0
2521,25210.0,1790707270498,12219609825500,161188.0,37.0
2522,25220.0,1790707270508,12219620267000,161426.0,34.0
2523,25230.0,1790707270518,12219630459700,161787.0,41.0
2524,25240.0,1790707270529,12219640743200,161850.0,30.0
2525,25250.0,1790707270539,12219650751200,161842.0,40.0
2526,25260.0,1790707270549,12219660679000,161677.0,50.0
2527,25270.0,1790707270559,12219671062000,161610.0,56.0
2528,25280.0,1790707270569,12219680488500,161345.0,61.0
2529,25290.0,1790707270579,12219690486800,161137.0,36.0
2530,25300.0,1790707270588,12219699621000,160946.0,24.0
2531,25310.0,1790707270598,12219709782600,160992.0,43.0
2532,25320.0,1790707270608,12219719862500,161022.0,35.0
2533,25330.0,1790707270618,12219729899900,161183.0,42.0
2534,25340.0,1790707270628,12219739926900,161350.0,32.0
2535,25350.0,1790707270638,12219749955100,161632.0,60.0
2536,25360.0,1790707270648,12219759973000,161732.0,46.0
2537,25370.0,1790707270658,12219770058500,161761.0,41.0
2538,25380.0,1790707270668,12219780091000,161566.0,53.0
2539,25390.0,1790707270678,12219790332600,161525.0,46.0
2540,25400.0,1790707270688,12219800100300,161326.0,39.0
2541,25410.0,1790707270698,12219810161200,161250.0,33.0
2542,25420.0,1790707270708,12219819997500,161081.0,44.0
2543,25430.0,1790707270718,12219830188900,161211.0,49.0
2544,25440.0,1790707270732,12219843641900,161443.0,43.0
2545,25450.0,1790707270810,12219921972300,161699.0,40.0
2546,25460.0,1790707270889,12220001446100,161732.0,49.0
2547,25470.0,1790707270891,12220002842900,161933.0,59.0
2548,25480.0,1790707270892,12220004011600,162045.0,48.0
2549,25490.0,1790707270893,12220005098900,162029.0,39.0
2550,25500.0,1790707270894,12220006168500,161827.0,44.0
2551,25510.0,1790707270895,12220007403300,161860.0,39.0
2552,25520.0,1790707270897,12220008805900,162049.0,38.0
2553,25530.0,1790707270898,12220010213600,162412.0,23.0
2554,25540.0,1790707270900,12220011926800,162399.0,29.0
2555,25550.0,1790707270901,12220013049200,162423.0,37.0
2556,25560.0,1790707270902,12220014262500,162302.0,41.0
2557,25570.0,1790707270906,12220018452500,162161.0,54.0
2558,25580.0,1790707270908,12220019764900,161868.0,40.0
2559,25590.0,1790707270909,12220020941000,161595.0,36.0
2560,25600.0,1790707270910,12220022049200,161167.0,34.0
2561,25610.0,1790707270911,12220023116400,160907.0,35.0
2562,25620.0,1790707270912,12220024303000,160501.0,45.0
2563,25630.0,1790707270918,12220030433400,160246.0,33.0
2564,25640.0,1790707270929,12220040560900,160029.0,38.0
2565,25650.0,1790707270939,12220050785900,160344.0,29.0
2566,25660.0,1790707270949,12220060737200,160703.0,53.0
2567,25670.0,1790707270959,12220070733200,161091.0,40.0
2568,25680.0,1790707270969,12220080840400,161235.0,40.0
2569,25690.0,1790707270979,12220090909600,161355.0,38.0
2570,25700.0,1790707270989,12220100560900,161243.0,44.0
2571,25710.0,1790707270999,12220110983200,161185.0,28.0
2572,25720.0,1790707271009,12220120665000,160886.0,37.0
2573,25730.0,1790707271019,12220131192700,160638.0,29.0
2574,25740.0,1790707271029,12220140584900,160305.0,21.0
2575,25750.0,1790707271039,12220150589600,160135.0,23.0
2576,25760.0,1790707271049,12220160873800,160032.0,28.0
2577,25770.0,1790707271059,12220170558500,160102.0,36.0
2578,25780.0,1790707271069,12220180664100,160059.0,52.0
2579,25790.0,1790707271079,12220190798800,160118.0,40.0
2580,25800.0,1790707271089,12220200729400,160133.0,27.0
2581,25810.0,1790707271099,12220210772700,160295.0,39.0
2582,25820.0,1790707271109,12220220850000,160277.0,41.0
2583,25830.0,1790707271119,12220230844500,160249.0,23.0
2584,25840.0,1790707271130,12220242169300,160017.0,41.0
2585,25850.0,1790707271140,12220252290200,159816.0,26.0
2586,25860.0,1790707271150,12220262273800,159564.0,32.0
2587,25870.0,1790707271160,12220272352500,159732.0,21.0
2588,25880.0,1790707271171,12220282611700,159770.0,30.0
2589,25890.0,1790707271180,12220292460700,160051.0,22.0
2590,25900.0,1790707271190,12220302411600,160103.0,38.0
2591,25910.0,1790707271201,12220312844500,160245.0,51.0
2592,25920.0,1790707271211,12220322912600,160179.0,36.0
2593,25930.0,1790707271221,12220332517900,160157.0,31.0
2594,25940.0,1790707271231,12220342662600,160048.0,38.0
2595,25950.0,1790707271241,12220352690900,160024.0,24.0
2596,25960.0,1790707271251,12220362722500,159881.0,28.0
2597,25970.0,1790707271261,12220372653600,159819.0,31.0
2598,25980.0,1790707271271,12220383014400,159752.0,48.0
2599,25990.0,1790707271281,12220393152000,159877.0,42.0
2600,26000.0,1790707271291,12220403355500,159974.0,45.0
2601,26010.0,1790707271301,12220413191700,160169.0,52.0
2602,26020.0,1790707271311,12220423278800,160192.0,26.0
2603,26030.0,1790707271321,12220433385900,160304.0,27.0
2604,26040.0,1790707271332,12220443564000,160225.0,32.0
2605,26050.0,1790707271341,12220453172600,160203.0,28.0
2606,26060.0,1790707271351,12220463203500,160073.0,37.0
2607,26070.0,1790707271361,12220472675400,160004.0,31.0
2608,26080.0,1790707271371,12220482880600,159853.0,31.0
2609,26090.0,1790707271381,12220492895500,159824.0,26.0
2610,26100.0,1790707271391,12220502563300,159741.0,33.0
2611,26110.0,1790707271401,12220512612600,159839.0,32.0
2612,26120.0,1790707271411,12220522734400,159926.0,22.0
2613,26130.0,1790707271421,12220532613600,160190.0,17.0
2614,26140.0,1790707271431,12220542828300,160270.0,31.0
2615,26150.0,1790707271441,12220552731000,160344.0,17.0
2616,26160.0,1790707271450,12220562446900,160243.0,29.0
2617,26170.0,1790707271461,12220572706200,160299.0,31.0
2618,26180.0,1790707271471,12220582761500,160133.0,29.0
2619,26190.0,1790707271481,12220592939600,160097.0,37.0
2620,26200.0,1790707271491,12220602869400,159973.0,24.0
2621,26210.0,1790707271501,12220612627700,160150.0,15.0
2622,26220.0,1790707271511,12220622578000,160060.0,28.0
2623,26230.0,1790707271520,12220632069900,160320.0,36.0
2624,26240.0,1790707271530,12220641814100,160379.0,26.0
2625,26250.0,1790707271540,12220652456500,160461.0,31.0
2626,26260.0,1790707271550,12220662419600,160318.0,39.0
2627,26270.0,1790707271561,12220672475000,160284.0,29.0
2628,26280.0,1790707271571,12220682502300,160100.0,36.0
2629,26290.0,1790707271580,12220692056900,160052.0,40.0
2630,26300.0,1790707271591,12220702666500,159864.0,48.0
2631,26310.0,1790707271600,12220711986100,159819.0,48.0
2632,26320.0,1790707271611,12220722526700,159655.0,39.0
2633,26330.0,1790707271620,12220732352200,159774.0,29.0
2634,26340.0,1790707271630,12220741876600,159912.0,37.0
2635,26350.0,1790707271641,12220752506700,160222.0,24.0
2636,26360.0,1790707271651,12220762504500,160298.0,35.0
2637,26370.0,1790707271660,12220772184000,160504.0,28.0
2638,26380.0,1790707271671,12220782911000,160568.0,44.0
2639,26390.0,1790707271681,12220792721900,160637.0,45.0
2640,26400.0,1790707271692,12220803926400,160525.0,33.0
2641,26410.0,1790707271702,12220814084600,160531.0,44.0
2642,26420.0,1790707271733,12220845194900,160417.0,49.0
2643,26430.0,1790707271735,12220846812500,160601.0,46.0
2644,26440.0,1790707271736,12220847904100,160739.0,38.0
2645,26450.0,1790707271802,12220913915700,161004.0,35.0
2646,26460.0,1790707271859,12220970620500,161112.0,44.0
2647,26470.0,1790707271860,12220972395500,161272.0,25.0
2648,26480.0,1790707271862,12220973727300,161207.0,41.0
2649,26490.0,1790707271863,12220975180400,161225.0,46.0
2650,26500.0,1790707271865,12220977040500,161150.0,38.0
2651,26510.0,1790707271866,12220978275700,161220.0,32.0
2652,26520.0,1790707271868,12220979495100,161021.0,33.0
2653,26530.0,1790707271869,12220980729700,160859.0,37.0
2654,26540.0,1790707271873,12220984479800,160529.0,33.0
2655,26550.0,1790707271874,12220986184000,160403.0,45.0
2656,26560.0,1790707271875,12220987378900,160344.0,34.0
2657,26570.0,1790707271876,12220988460700,160494.0,40.0
2658,26580.0,1790707271878,12220989532900,160496.0,50.0
2659,26590.0,1790707271881,12220992810100,160629.0,31.0
2660,26600.0,1790707271891,12221002646500,160588.0,43.0
2661,26610.0,1790707271901,12221012509900,160653.0,21.0
2662,26620.0,1790707271911,12221022546300,160592.0,36.0
2663,26630.0,1790707271921,12221032537500,160592.0,33.0
2664,26640.0,1790707271931,12221042565500,160441.0,34.0
2665,26650.0,1790707271941,12221052573700,160543.0,17.0
2666,26660.0,1790707271951,12221062897800,160620.0,32.0
2667,26670.0,1790707271961,12221072741800,160852.0,46.0
2668,26680.0,1790707271972,12221083721300,160920.0,41.0
2669,26690.0,1790707271982,12221093500400,161040.0,38.0
2670,26700.0,1790707271992,12221104287800,161011.0,28.0
2671,26710.0,1790707272002,12221114076400,161083.0,30.0
2672,26720.0,1790707272012,12221124227300,160976.0,36.0
2673,26730.0,1790707272022,12221134102600,160973.0,45.0
2674,26740.0,1790707272032,12221144111700,160884.0,23.0
2675,26750.0,1790707272042,12221154300900,160924.0,46.0
2676,26760.0,1790707272052,12221164395400,160851.0,35.0
2677,26770.0,1790707272063,12221174954800,160868.0,45.0
2678,26780.0,1790707272073,12221184580300,160681.0,44.0
2679,26790.0,1790707272082,12221194312600,160593.0,39.0
2680,26800.0,1790707272093,12221204712000,160344.0,44.0
2681,26810.0,1790707272103,12221214737500,160196.0,35.0
2682,26820.0,1790707272112,12221224427900,159987.0,52.0
2683,26830.0,1790707272122,12221234342400,159843.0,24.0
2684,26840.0,1790707272132,12221243589000,159681.0,48.0
2685,26850.0,1790707272141,12221253249100,159820.0,24.0
2686,26860.0,1790707272151,12221263149500,159801.0,39.0
2687,26870.0,1790707272161,12221273032800,159933.0,18.0
2688,26880.0,1790707272172,12221283596000,160040.0,48.0
2689,26890.0,1790707272182,12221293866100,160246.0,56.0
2690,26900.0,1790707272192,12221303680600,160291.0,43.0
2691,26910.0,1790707272202,12221313494500,160410.0,50.0
2692,26920.0,1790707272212,12221323521200,160339.0,44.0
2693,26930.0,1790707272222,12221333617100,160426.0,44.0
2694,26940.0,1790707272232,12221343577900,160360.0,44.0
2695,26950.0,1790707272242,12221353630400,160343.0,30.0
2696,26960.0,1790707272252,12221363926500,160216.0,43.0
2697,26970.0,1790707272262,12221374049800,160231.0,42.0
2698,26980.0,1790707272272,12221384257600,160228.0,31.0
2699,26990.0,1790707272283,12221394607700,160378.0,57.0
2700,27000.0,1790707272293,12221404733900,160449.0,45.0
2701,27010.0,1790707272303,12221414741200,160633.0,43.0
2702,27020.0,1790707272313,12221424833100,160640.0,50.0
2703,27030.0,1790707272323,12221434761600,160721.0,35.0
2704,27040.0,1790707272333,12221444714900,160572.0,39.0
2705,27050.0,1790707272343,12221454822200,160493.0,42.0
2706,27060.0,1790707272353,12221464715700,160326.0,24.0
2707,27070.0,1790707272363,12221474899400,160358.0,49.0
2708,27080.0,1790707272373,12221484822700,160378.0,53.0
2709,27090.0,1790707272383,12221494972000,160706.0,44.0
2710,27100.0,1790707272393,12221504882900,161012.0,57.0
2711,27110.0,1790707272403,12221514562100,161442.0,52.0
2712,27120.0,1790707272413,12221524957700,161501.0,59.0
2713,27130.0,1790707272423,12221534824200,161536.0,37.0
2714,27140.0,1790707272433,12221544711300,161380.0,39.0
2715,27150.0,1790707272443,12221554822600,161267.0,37.0
2716,27160.0,1790707272453,12221564845100,160945.0,29.0
2717,27170.0,1790707272463,12221575004800,160610.0,17.0
2718,27180.0,1790707272473,12221584815600,160156.0,38.0
2719,27190.0,1790707272483,12221594759900,159883.0,48.0
2720,27200.0,1790707272493,12221604850000,159636.0,46.0
2721,27210.0,1790707272503,12221614918000,159544.0,54.0
2722,27220.0,1790707272513,12221625186200,159462.0,54.0
2723,27230.0,1790707272523,12221634982600,159447.0,40.0
2724,27240.0,1790707272533,12221644952200,159400.0,38.0
2725,27250.0,1790707272543,12221655227500,159537.0,24.0
2726,27260.0,1790707272553,12221665032200,159711.0,36.0
2727,27270.0,1790707272563,12221675204200,159980.0,52.0
2728,27280.0,1790707272573,12221685190100,160013.0,52.0
2729,27290.0,1790707272583,12221695132900,160016.0,47.0
2730,27300.0,1790707272593,12221704965400,159925.0,55.0
2731,27310.0,1790707272603,12221714568000,159910.0,43.0
2732,27320.0,1790707272612,12221724134800,159816.0,38.0
2733,27330.0,1790707272622,12221734222300,159773.0,47.0
2734,27340.0,1790707272632,12221743800600,159705.0,53.0
2735,27350.0,1790707272642,12221753841800,159720.0,36.0
2736,27360.0,1790707272653,12221764757900,159559.0,32.0
2737,27370.0,1790707272663,12221774924900,159516.0,49.0
2738,27380.0,1790707272673,12221784645400,159527.0,47.0
2739,27390.0,1790707272684,12221795722900,159564.0,51.0
2740,27400.0,1790707272694,12221805897200,159476.0,44.0
2741,27410.0,1790707272704,12221816178300,159485.0,38.0
2742,27420.0,1790707272714,12221825869300,159650.0,36.0
2743,27430.0,1790707272744,12221856317100,159570.0,32.0
2744,27440.0,1790707272748,12221859795800,159663.0,42.0
2745,27450.0,1790707272750,12221862444600,159955.0,29.0
2746,27460.0,1790707272753,12221864764500,160131.0,51.0
2747,27470.0,1790707272875,12221986941100,160303.0,39.0
2748,27480.0,1790707272876,12221988411200,160423.0,60.0
2749,27490.0,1790707272878,12221989713800,160607.0,52.0
2750,27500.0,1790707272879,12221991191400,160679.0,48.0
2751,27510.0,1790707272881,12221992991200,160698.0,41.0
2752,27520.0,1790707272882,12221994182600,160562.0,46.0
2753,27530.0,1790707272883,12221995349800,160506.0,44.0
2754,27540.0,1790707272885,12221996490900,160367.0,38.0
2755,27550.0,1790707272886,12221997754800,160330.0,49.0
2756,27560.0,1790707272890,12222001657700,160421.0,37.0
2757,27570.0,1790707272891,12222002978500,160735.0,38.0
2758,27580.0,1790707272892,12222004112400,160913.0,43.0
2759,27590.0,1790707272893,12222005171800,161079.0,52.0
2760,27600.0,1790707272894,12222006254800,161089.0,35.0
2761,27610.0,1790707272903,12222014514900,161173.0,50.0
2762,27620.0,1790707272913,12222024907300,161049.0,48.0
2763,27630.0,1790707272923,12222034497500,160973.0,43.0
2764,27640.0,1790707272933,12222044560000,160770.0,31.0
2765,27650.0,1790707272943,12222054542600,160751.0,31.0
2766,27660.0,1790707272953,12222064710900,160833.0,48.0
2767,27670.0,1790707272963,12222074705600,161035.0,47.0
2768,27680.0,1790707272973,12222084729800,161138.0,40.0
2769,27690.0,1790707272983,12222094875700,161252.0,34.0
2770,27700.0,1790707272994,12222105905200,161140.0,45.0
2771,27710.0,1790707273004,12222115923500,161169.0,52.0
2772,27720.0,1790707273014,12222126305500,161077.0,52.0
2773,27730.0,1790707273024,12222136110200,161018.0,40.0
2774,27740.0,1790707273034,12222146070400,160854.0,46.0
2775,27750.0,1790707273044,12222156263000,160700.0,39.0
2776,27760.0,1790707273054,12222166173100,160486.0,35.0
2777,27770.0,1790707273064,12222176353700,160360.0,43.0
2778,27780.0,1790707273074,12222186455000,160291.0,37.0
2779,27790.0,1790707273085,12222196525500,160351.0,60.0
2780,27800.0,1790707273095,12222206788500,160501.0,52.0
2781,27810.0,1790707273105,12222216693900,160813.0,52.0
2782,27820.0,1790707273114,12222226457200,161059.0,50.0
2783,27830.0,1790707273125,12222237044600,161241.0,49.0
2784,27840.0,1790707273135,12222247049200,161311.0,31.0
2785,27850.0,1790707273145,12222256710600,161388.0,35.0
2786,27860.0,1790707273155,12222267109000,161377.0,28.0
2787,27870.0,1790707273165,12222276645100,161337.0,56.0
2788,27880.0,1790707273175,12222287362000,161177.0,44.0
2789,27890.0,1790707273185,12222297231900,160996.0,63.0
2790,27900.0,1790707273195,12222307235400,160824.0,42.0
2791,27910.0,1790707273205,12222317326200,160734.0,36.0
2792,27920.0,1790707273215,12222326697700,160713.0,42.0
2793,27930.0,1790707273224,12222336450500,160826.0,40.0
2794,27940.0,1790707273235,12222347100000,160917.0,51.0
2795,27950.0,1790707273245,12222357013900,161001.0,56.0
2796,27960.0,1790707273255,12222367354900,161003.0,39.0
2797,27970.0,1790707273265,12222376658700,160871.0,40.0
2798,27980.0,1790707273275,12222387266300,160679.0,47.0
2799,27990.0,1790707273285,12222397249100,160639.0,29.0
2800,28000.0,1790707273295,12222407365000,160616.0,49.0
2801,28010.0,1790707273305,12222416941100,160651.0,36.0
2802,28020.0,1790707273314,12222426395400,160678.0,39.0
2803,28030.0,1790707273324,12222435803800,160896.0,47.0
2804,28040.0,1790707273334,12222445575300,160921.0,39.0
2805,28050.0,1790707273343,12222455437800,160923.0,49.0
2806,28060.0,1790707273354,12222465976000,160883.0,35.0
2807,28070.0,1790707273364,12222475967600,160902.0,44.0
2808,28080.0,1790707273374,12222486058900,160892.0,36.0
2809,28090.0,1790707273384,12222495588400,160879.0,55.0
2810,28100.0,1790707273394,12222506088100,160777.0,39.0
2811,28110.0,1790707273404,12222516096300,160646.0,46.0
2812,28120.0,1790707273414,12222526154400,160539.0,51.0
2813,28130.0,1790707273424,12222536464500,160420.0,53.0
2814,28140.0,1790707273435,12222546555600,160304.0,43.0
2815,28150.0,1790707273445,12222556997200,160326.0,47.0
2816,28160.0,1790707273455,12222567177500,160357.0,50.0
2817,28170.0,1790707273465,12222576889300,160580.0,39.0
2818,28180.0,1790707273475,12222587238400,160642.0,41.0
2819,28190.0,1790707273485,12222597163200,160649.0,47.0
2820,28200.0,1790707273495,12222607385800,160592.0,53.0
2821,28210.0,1790707273505,12222617221500,160568.0,62.0
2822,28220.0,1790707273515,12222627312300,160537.0,65.0
2823,28230.0,1790707273524,12222636149800,160514.0,59.0
2824,28240.0,1790707273534,12222646089300,160424.0,58.0
2825,28250.0,1790707273544,12222656235200,160441.0,68.0
2826,28260.0,1790707273554,12222666457600,160304.0,46.0
2827,28270.0,1790707273564,12222676283600,160339.0,53.0
2828,28280.0,1790707273575,12222686774000,160431.0,64.0
2829,28290.0,1790707273585,12222697310900,160530.0,42.0
2830,28300.0,1790707273595,12222706706600,160567.0,59.0
2831,28310.0,1790707273605,12222716772200,160652.0,46.0
2832,28320.0,1790707273615,12222727080600,160821.0,54.0
2833,28330.0,1790707273625,12222737397800,160926.0,67.0
2834,28340.0,1790707273635,12222746637000,160897.0,42.0
2835,28350.0,1790707273645,12222756951200,160843.0,40.0
2836,28360.0,1790707273655,12222767225200,160802.0,57.0
2837,28370.0,1790707273664,12222776259600,160734.0,32.0
2838,28380.0,1790707273674,12222786342300,160747.0,48.0
2839,28390.0,1790707273685,12222796549900,160842.0,37.0
2840,28400.0,1790707273695,12222806625200,160964.0,53.0
2841,28410.0,1790707273705,12222816974400,161039.0,41.0
2842,28420.0,1790707273715,12222827019400,161091.0,52.0
2843,28430.0,1790707273741,12222853462400,161081.0,62.0
2844,28440.0,1790707273745,12222856549600,161026.0,56.0
2845,28450.0,1790707273747,12222859293200,160925.0,53.0
2846,28460.0,1790707273877,12222989270200,160807.0,47.0
2847,28470.0,1790707273879,12222991326100,160813.0,40.0
2848,28480.0,1790707273881,12222993140000,160920.0,43.0
2849,28490.0,1790707273882,12222994322900,161118.0,37.0
2850,28500.0,1790707273884,12222995473500,161360.0,34.0
2851,28510.0,1790707273885,12222996685000,161557.0,40.0
2852,28520.0,1790707273886,12222997917300,161816.0,55.0
2853,28530.0,1790707273887,12222999100200,161864.0,66.0
2854,28540.0,1790707273888,12223000319000,161752.0,45.0
2855,28550.0,1790707273890,12223001505600,161687.0,50.0
2856,28560.0,1790707273891,12223002628700,161593.0,56.0
2857,28570.0,1790707273892,12223003739400,161451.0,35.0
2858,28580.0,1790707273893,12223004795800,161287.0,42.0
2859,28590.0,1790707273896,12223008391400,161106.0,46.0
2860,28600.0,1790707273898,12223009691900,160958.0,44.0
2861,28610.0,1790707273905,12223016467400,160786.0,47.0
2862,28620.0,1790707273914,12223026443300,160782.0,42.0
2863,28630.0,1790707273925,12223036499700,160784.0,56.0
2864,28640.0,1790707273935,12223046580000,160810.0,50.0
2865,28650.0,1790707273945,12223056851500,160873.0,44.0
2866,28660.0,1790707273955,12223066685400,160941.0,41.0
2867,28670.0,1790707273965,12223076722400,160926.0,33.0
2868,28680.0,1790707273975,12223086736200,160935.0,27.0
2869,28690.0,1790707273985,12223096781700,160989.0,43.0
2870,28700.0,1790707273995,12223106781600,161267.0,31.0
2871,28710.0,1790707274006,12223118015300,161524.0,49.0
2872,28720.0,1790707274016,12223128125300,161790.0,53.0
2873,28730.0,1790707274026,12223138042700,161825.0,37.0
2874,28740.0,1790707274036,12223148220700,161817.0,44.0
2875,28750.0,1790707274046,12223158168700,161747.0,45.0
2876,28760.0,1790707274056,12223168156500,161678.0,34.0
2877,28770.0,1790707274066,12223178019700,161529.0,38.0
2878,28780.0,1790707274076,12223188152200,161411.0,45.0
2879,28790.0,1790707274086,12223198097400,161254.0,38.0
2880,28800.0,1790707274096,12223207986400,161166.0,45.0
2881,28810.0,1790707274106,12223218261700,161214.0,50.0
2882,28820.0,1790707274116,12223228328300,161348.0,38.0
2883,28830.0,1790707274126,12223238416300,161317.0,38.0
2884,28840.0,1790707274136,12223248323600,161047.0,55.0
2885,28850.0,1790707274146,12223258176400,160763.0,29.0
2886,28860.0,1790707274157,12223268698000,160664.0,52.0
2887,28870.0,1790707274167,12223278673000,160609.0,39.0
2888,28880.0,1790707274176,12223288198400,160518.0,28.0
2889,28890.0,1790707274187,12223298833900,160329.0,50.0
2890,28900.0,1790707274196,12223308325000,160230.0,41.0
2891,28910.0,1790707274207,12223318894600,160106.0,36.0
2892,28920.0,1790707274217,12223328781300,160062.0,44.0
2893,28930.0,1790707274227,12223338889400,159979.0,49.0
2894,28940.0,1790707274237,12223348972500,159965.0,46.0
2895,28950.0,1790707274247,12223358484200,159986.0,48.0
2896,28960.0,1790707274257,12223368928800,160146.0,37.0
2897,28970.0,1790707274267,12223379058000,160137.0,57.0
2898,28980.0,1790707274277,12223388764900,160013.0,36.0
2899,28990.0,1790707274287,12223399122900,159788.0,44.0
2900,29000.0,1790707274296,12223408350400,159715.0,31.0
2901,29010.0,1790707274306,12223418352900,159785.0,33.0
2902,29020.0,1790707274317,12223428496000,159766.0,45.0
2903,29030.0,1790707274327,12223439046800,159899.0,23.0
2904,29040.0,1790707274337,12223448950500,159876.0,44.0
2905,29050.0,1790707274347,12223458474000,159822.0,55.0
2906,29060.0,1790707274357,12223469068900,159888.0,34.0
2907,29070.0,1790707274367,12223478892800,159787.0,45.0
2908,29080.0,1790707274377,12223489146200,159733.0,52.0
2909,29090.0,1790707274387,12223499115100,159850.0,44.0
2910,29100.0,1790707274397,12223508865500,159955.0,35.0
2911,29110.0,1790707274407,12223519140400,160038.0,33.0
2912,29120.0,1790707274417,12223528770000,160049.0,31.0
2913,29130.0,1790707274427,12223539148200,160060.0,40.0
2914,29140.0,1790707274437,12223549147000,160156.0,49.0
2915,29150.0,1790707274447,12223559002500,160073.0,31.0
2916,29160.0,1790707274457,12223569152900,160061.0,56.0
2917,29170.0,1790707274467,12223579161300,160036.0,39.0
2918,29180.0,1790707274477,12223589141800,160064.0,39.0
2919,29190.0,1790707274487,12223599101400,160074.0,29.0
2920,29200.0,1790707274497,12223608735700,160107.0,38.0
2921,29210.0,1790707274506,12223617672800,160040.0,43.0
2922,29220.0,1790707274516,12223627722100,159978.0,34.0
2923,29230.0,1790707274528,12223639839300,159874.0,26.0
2924,29240.0,1790707274536,12223648176800,159851.0,43.0
2925,29250.0,1790707274546,12223658067800,159848.0,44.0
2926,29260.0,1790707274556,12223668181800,159987.0,37.0
2927,29270.0,1790707274566,12223678292200,160076.0,47.0
2928,29280.0,1790707274576,12223688299400,160161.0,41.0
2929,29290.0,1790707274586,12223698438500,160102.0,42.0
2930,29300.0,1790707274597,12223708545200,160025.0,51.0
2931,29310.0,1790707274607,12223718992100,159921.0,40.0
2932,29320.0,1790707274617,12223729277600,159978.0,39.0
2933,29330.0,1790707274628,12223740094500,160009.0,36.0
2934,29340.0,1790707274638,12223750249600,160139.0,30.0
2935,29350.0,1790707274648,12223760117800,160242.0,36.0
2936,29360.0,1790707274658,12223769840000,160301.0,38.0
2937,29370.0,1790707274668,12223780346800,160255.0,47.0
2938,29380.0,1790707274678,12223790457300,160376.0,28.0
2939,29390.0,1790707274689,12223800672000,160322.0,42.0
2940,29400.0,1790707274698,12223810352700,160234.0,46.0
2941,29410.0,1790707274707,12223819270100,160135.0,38.0
2942,29420.0,1790707274718,12223829623800,160243.0,36.0
2943,29430.0,1790707274733,12223844656100,160289.0,43.0
2944,29440.0,1790707274736,12223848154700,160348.0,35.0
2945,29450.0,1790707274851,12223963321400,160302.0,36.0
2946,29460.0,1790707274854,12223965505800,160290.0,51.0
2947,29470.0,1790707274855,12223966776800,160105.0,53.0
2948,29480.0,1790707274856,12223967975100,160037.0,50.0
2949,29490.0,1790707274857,12223969146100,159848.0,45.0
2950,29500.0,1790707274858,12223970349600,159779.0,52.0
2951,29510.0,1790707274860,12223971588600,159551.0,27.0
2952,29520.0,1790707274861,12223973023200,159566.0,36.0
2953,29530.0,1790707274863,12223974622500,159367.0,28.0
2954,29540.0,1790707274864,12223976343700,159481.0,43.0
2955,29550.0,1790707274866,12223978052000,159425.0,43.0
2956,29560.0,1790707274867,12223979206100,159552.0,42.0
2957,29570.0,1790707274868,12223980350600,159626.0,52.0
2958,29580.0,1790707274877,12223988696700,159644.0,41.0
2959,29590.0,1790707274886,12223998434300,159598.0,39.0
2960,29600.0,1790707274897,12224008834500,159698.0,36.0
2961,29610.0,1790707274907,12224018493300,159661.0,41.0
2962,29620.0,1790707274917,12224028520900,159644.0,20.0
2963,29630.0,1790707274927,12224038578200,159565.0,32.0
2964,29640.0,1790707274937,12224048586700,159622.0,20.0
2965,29650.0,1790707274947,12224058675300,159628.0,29.0
2966,29660.0,1790707274957,12224068624400,159753.0,42.0
2967,29670.0,1790707274967,12224078738100,159940.0,49.0
2968,29680.0,1790707274977,12224088927000,160141.0,56.0
2969,29690.0,1790707274988,12224099956700,160176.0,42.0
2970,29700.0,1790707274998,12224110059700,160158.0,50.0
2971,29710.0,1790707275008,12224120201400,159983.0,36.0
2972,29720.0,1790707275018,12224130234800,159844.0,40.0
2973,29730.0,1790707275028,12224140375700,159659.0,45.0
2974,29740.0,1790707275038,12224150201200,159581.0,50.0
2975,29750.0,1790707275048,12224160314500,159383.0,47.0
2976,29760.0,1790707275058,12224170430100,159387.0,45.0
2977,29770.0,1790707275068,12224180446600,159280.0,48.0
2978,29780.0,1790707275078,12224190155300,159350.0,44.0
2979,29790.0,1790707275088,12224200262000,159282.0,45.0
2980,29800.0,1790707275099,12224210747800,159427.0,26.0
2981,29810.0,1790707275108,12224220355700,159357.0,25.0
2982,29820.0,1790707275118,12224229936000,159425.0,44.0
2983,29830.0,1790707275128,12224239600600,159418.0,31.0
2984,29840.0,1790707275137,12224249249000,159532.0,32.0
2985,29850.0,1790707275147,12224259069100,159450.0,37.0
2986,29860.0,1790707275157,12224269333700,159469.0,44.0
2987,29870.0,1790707275167,12224279126000,159457.0,51.0
2988,29880.0,1790707275177,12224289192000,159479.0,57.0
2989,29890.0,1790707275188,12224299891800,159358.0,58.0
2990,29900.0,1790707275197,12224309198200,159340.0,42.0
2991,29910.0,1790707275208,12224319824100,159244.0,40.0
2992,29920.0,1790707275218,12224329894400,159275.0,41.0
2993,29930.0,1790707275228,12224339566300,159179.0,27.0
2994,29940.0,1790707275238,12224349748200,159230.0,38.0
2995,29950.0,1790707275248,12224360323700,159248.0,36.0
2996,29960.0,1790707275258,12224370409200,159412.0,43.0
2997,29970.0,1790707275269,12224380469000,159496.0,44.0
2998,29980.0,1790707275279,12224390959200,159625.0,55.0
2999,29990.0,1790707275289,12224400809300,159567.0,51.0
3000,30000.0,1790707275299,12224410680900,159561.0,50.0
3001,30010.0,1790707275309,12224420762100,159430.0,30.0
3002,30020.0,1790707275319,12224430851100,159417.0,48.0
3003,30030.0,1790707275329,12224441313800,159339.0,44.0
3004,30040.0,1790707275339,12224450478100,159349.0,51.0
3005,30050.0,1790707275348,12224459912100,159340.0,46.0
3006,30060.0,1790707275358,12224470378000,159378.0,56.0
3007,30070.0,1790707275368,12224480083500,159368.0,38.0
3008,30080.0,1790707275378,12224490040800,159614.0,48.0
3009,30090.0,1790707275389,12224500534000,159653.0,51.0
3010,30100.0,1790707275399,12224510666000,159769.0,39.0
3011,30110.0,1790707275408,12224520352100,159783.0,31.0
3012,30120.0,1790707275418,12224530335300,159899.0,39.0
3013,30130.0,1790707275428,12224540258100,159855.0,32.0
3014,30140.0,1790707275438,12224550333800,159895.0,55.0
3015,30150.0,1790707275449,12224560710300,159831.0,59.0
3016,30160.0,1790707275459,12224570665900,159882.0,43.0
3017,30170.0,1790707275468,12224580411600,159799.0,37.0
3018,30180.0,1790707275478,12224590181500,159813.0,45.0
3019,30190.0,1790707275488,12224599627100,159707.0,48.0
3020,30200.0,1790707275498,12224609681000,159758.0,42.0
3021,30210.0,1790707275508,12224619723300,159648.0,19.0
3022,30220.0,1790707275518,12224629719300,159680.0,39.0
3023,30230.0,1790707275528,12224639762600,159577.0,42.0
3024,30240.0,1790707275538,12224650015800,159586.0,36.0
3025,30250.0,1790707275548,12224659766400,159523.0,54.0
3026,30260.0,1790707275558,12224669826300,159547.0,53.0
3027,30270.0,1790707275568,12224679896100,159384.0,41.0
3028,30280.0,1790707275578,12224689979800,159332.0,40.0
3029,30290.0,1790707275588,12224700160100,159165.0,57.0
3030,30300.0,1790707275598,12224710027900,159077.0,36.0
3031,30310.0,1790707275608,12224720151600,158893.0,36.0
3032,30320.0,1790707275618,12224730175500,158795.0,32.0
3033,30330.0,1790707275628,12224740114500,158612.0,23.0
3034,30340.0,1790707275639,12224750572500,158653.0,38.0
3035,30350.0,1790707275648,12224760361600,158366.0,57.0
3036,30360.0,1790707275658,12224770373600,158431.0,49.0
3037,30370.0,1790707275668,12224780406200,158395.0,41.0
3038,30380.0,1790707275678,12224790193300,158400.0,42.0
3039,30390.0,1790707275688,12224799988500,158359.0,30.0
3040,30400.0,1790707275698,12224810035000,158460.0,21.0
3041,30410.0,1790707275708,12224820279700,158549.0,31.0
3042,30420.0,1790707275718,12224830311200,158515.0,39.0
3043,30430.0,1790707275735,12224846685000,158530.0,29.0
3044,30440.0,1790707275738,12224850334100,158545.0,30.0
3045,30450.0,1790707275822,12224933948600,158527.0,40.0
3046,30460.0,1790707275825,12224936538900,158633.0,44.0
3047,30470.0,1790707275920,12225032097400,158618.0,31.0
3048,30480.0,1790707275922,12225034026100,158745.0,26.0
3049,30490.0,1790707275923,12225035028700,158728.0,21.0
3050,30500.0,1790707275924,12225035972600,158849.0,30.0
3051,30510.0,1790707275925,12225036863100,158828.0,27.0
3052,30520.0,1790707275926,12225037822800,158897.0,38.0
3053,30530.0,1790707275927,12225039427200,158878.0,43.0
3054,30540.0,1790707275929,12225040636000,158991.0,39.0
3055,30550.0,1790707275930,12225041574800,159030.0,41.0
3056,30560.0,1790707275931,12225042481100,159254.0,41.0
3057,30570.0,1790707275931,12225043433900,159197.0,43.0
3058,30580.0,1790707275933,12225044476800,159349.0,42.0
3059,30590.0,1790707275933,12225045406600,159290.0,38.0
3060,30600.0,1790707275934,12225046291000,159327.0,29.0
3061,30610.0,1790707275935,12225047181700,159272.0,36.0
3062,30620.0,1790707275936,12225048054900,159341.0,41.0
3063,30630.0,1790707275937,12225048927000,159202.0,26.0
3064,30640.0,1790707275938,12225050438000,159236.0,37.0
3065,30650.0,1790707275949,12225060564600,159131.0,48.0
3066,30660.0,1790707275959,12225070885200,159212.0,39.0
3067,30670.0,1790707275969,12225080805500,159210.0,27.0
3068,30680.0,1790707275979,12225090680200,159345.0,31.0
3069,30690.0,1790707275989,12225100926300,159357.0,28.0
3070,30700.0,1790707275999,12225110776500,159430.0,27.0
3071,30710.0,1790707276009,12225121226000,159371.0,24.0
3072,30720.0,1790707276019,12225130868000,159480.0,26.0
3073,30730.0,1790707276030,12225141492100,159397.0,28.0
3074,30740.0,1790707276039,12225150875300,159438.0,35.0
3075,30750.0,1790707276049,12225160952300,159376.0,41.0
3076,30760.0,1790707276059,12225170617500,159439.0,30.0
3077,30770.0,1790707276069,12225180667400,159415.0,28.0
3078,30780.0,1790707276079,12225190795200,159524.0,16.0
3079,30790.0,1790707276089,12225200881400,159413.0,37.0
3080,30800.0,1790707276099,12225210957100,159519.0,22.0
3081,30810.0,1790707276109,12225220889700,159474.0,34.0
3082,30820.0,1790707276119,12225230854200,159614.0,35.0
3083,30830.0,1790707276129,12225240954500,159534.0,27.0
3084,30840.0,1790707276140,12225252304400,159596.0,38.0
3085,30850.0,1790707276150,12225262302500,159462.0,39.0
3086,30860.0,1790707276160,12225272355800,159487.0,48.0
3087,30870.0,1790707276170,12225282373000,159399.0,34.0
3088,30880.0,1790707276180,12225292362000,159486.0,32.0
3089,30890.0,1790707276190,12225301925800,159483.0,26.0
3090,30900.0,1790707276200,12225311708300,159588.0,33.0
3091,30910.0,1790707276209,12225321457400,159491.0,29.0
3092,30920.0,1790707276220,12225331712100,159563.0,33.0
3093,30930.0,1790707276230,12225341932200,159473.0,32.0
3094,30940.0,1790707276240,12225351982300,159530.0,32.0
3095,30950.0,1790707276249,12225361418900,159459.0,57.0
3096,30960.0,1790707276260,12225371653700,159564.0,31.0
3097,30970.0,1790707276269,12225381443100,159518.0,47.0
3098,30980.0,1790707276281,12225392901600,159662.0,40.0
3099,30990.0,1790707276291,12225402957900,159707.0,34.0
3100,31000.0,1790707276302,12225414022000,159803.0,37.0
3101,31010.0,1790707276311,12225423451400,159741.0,38.0
3102,31020.0,1790707276321,12225432957800,159804.0,47.0
3103,31030.0,1790707276331,12225442858300,159714.0,56.0
3104,31040.0,1790707276340,12225452295400,159757.0,33.0
3105,31050.0,1790707276350,12225462341400,159632.0,48.0
3106,31060.0,1790707276360,12225472409100,159636.0,46.0
3107,31070.0,1790707276370,12225481499300,159515.0,36.0
3108,31080.0,1790707276380,12225491594000,159507.0,30.0
3109,31090.0,1790707276390,12225501602000,159343.0,58.0
3110,31100.0,1790707276400,12225511646800,159332.0,38.0
3111,31110.0,1790707276410,12225521602200,159267.0,36.0
3112,31120.0,1790707276420,12225531740000,159375.0,28.0
3113,31130.0,1790707276430,12225541858000,159343.0,37.0
3114,31140.0,1790707276440,12225551818600,159521.0,40.0
3115,31150.0,1790707276450,12225561820500,159459.0,35.0
3116,31160.0,1790707276460,12225571541100,159574.0,41.0
3117,31170.0,1790707276471,12225583023600,159516.0,41.0
3118,31180.0,1790707276482,12225593519000,159608.0,48.0
3119,31190.0,1790707276491,12225603457600,159589.0,38.0
3120,31200.0,1790707276501,12225613069300,159691.0,34.0
3121,31210.0,1790707276512,12225623605600,159621.0,41.0
3122,31220.0,1790707276520,12225632190000,159700.0,45.0
3123,31230.0,1790707276530,12225641805000,159618.0,38.0
3124,31240.0,1790707276541,12225653279800,159664.0,44.0
3125,31250.0,1790707276551,12225663334800,159577.0,31.0
3126,31260.0,1790707276562,12225674256300,159645.0,38.0
3127,31270.0,1790707276571,12225683419900,159594.0,46.0
3128,31280.0,1790707276582,12225694026600,159720.0,44.0
3129,31290.0,1790707276591,12225702954800,159722.0,22.0
3130,31300.0,1790707276601,12225712980300,159856.0,24.0
3131,31310.0,1790707276611,12225723125800,159818.0,30.0
3132,31320.0,1790707276621,12225733292200,159923.0,36.0
3133,31330.0,1790707276631,12225743159000,159900.0,37.0
3134,31340.0,1790707276641,12225753306300,160062.0,51.0
3135,31350.0,1790707276651,12225762898000,160082.0,46.0
3136,31360.0,1790707276661,12225772807900,160161.0,32.0
3137,31370.0,1790707276671,12225783139100,160059.0,29.0
3138,31380.0,1790707276681,12225792844000,160040.0,34.0
3139,31390.0,1790707276691,12225802586900,159884.0,23.0
3140,31400.0,1790707276700,12225812333000,159891.0,37.0
3141,31410.0,1790707276730,12225842329000,159864.0,41.0
3142,31420.0,1790707276732,12225844028300,160007.0,38.0
3143,31430.0,1790707276733,12225845281500,160020.0,37.0
3144,31440.0,1790707276784,12225895654800,160159.0,46.0
3145,31450.0,1790707276853,12225965286200,160226.0,45.0
3146,31460.0,1790707276855,12225966930400,160332.0,57.0
3147,31470.0,1790707276856,12225968235400,160290.0,28.0
3148,31480.0,1790707276857,12225969404300,160353.0,46.0
3149,31490.0,1790707276859,12225970645600,160155.0,35.0
3150,31500.0,1790707276860,12225972077800,160111.0,21.0
3151,31510.0,1790707276861,12225973275000,159937.0,52.0
3152,31520.0,1790707276862,12225974425900,159941.0,42.0
3153,31530.0,1790707276864,12225975633000,159939.0,46.0
3154,31540.0,1790707276865,12225976763100,160065.0,36.0
3155,31550.0,1790707276866,12225978056800,160053.0,54.0
3156,31560.0,1790707276867,12225979352500,160161.0,26.0
3157,31570.0,1790707276870,12225982317000,160107.0,33.0
3158,31580.0,1790707276880,12225992362900,160212.0,45.0
3159,31590.0,1790707276890,12226002440300,160171.0,41.0
3160,31600.0,1790707276901,12226012478700,160246.0,49.0
3161,31610.0,1790707276911,12226022901500,160146.0,46.0
3162,31620.0,1790707276921,12226032512000,160176.0,30.0
3163,31630.0,1790707276931,12226042589400,160110.0,40.0
3164,31640.0,1790707276941,12226052589200,160231.0,54.0
3165,31650.0,1790707276951,12226062665300,160271.0,44.0
3166,31660.0,1790707276961,12226072672200,160404.0,42.0
3167,31670.0,1790707276971,12226082616000,160369.0,55.0
3168,31680.0,1790707276981,12226092688500,160433.0,46.0
3169,31690.0,1790707276993,12226104637200,160402.0,28.0
3170,31700.0,1790707277002,12226113902400,160479.0,58.0
3171,31710.0,1790707277012,12226123612000,160426.0,44.0
3172,31720.0,1790707277022,12226133805800,160493.0,35.0
3173,31730.0,1790707277032,12226143970900,160422.0,45.0
3174,31740.0,1790707277042,12226153981000,160465.0,36.0
3175,31750.0,1790707277052,12226163857300,160422.0,38.0
3176,31760.0,1790707277062,12226173789600,160503.0,38.0
3177,31770.0,1790707277072,12226183893700,160513.0,38.0
3178,31780.0,1790707277082,12226193970900,160675.0,29.0
3179,31790.0,1790707277092,12226203528700,160672.0,44.0
3180,31800.0,1790707277102,12226214008200,160642.0,43.0
3181,31810.0,1790707277112,12226223988200,160504.0,62.0
3182,31820.0,1790707277122,12226233948400,160420.0,52.0
3183,31830.0,1790707277132,12226243982700,160285.0,46.0
3184,31840.0,1790707277142,12226254061400,160290.0,30.0
3185,31850.0,1790707277152,12226264247600,160160.0,34.0
3186,31860.0,1790707277162,12226274142700,160230.0,34.0
3187,31870.0,1790707277172,12226284252300,160210.0,41.0
3188,31880.0,1790707277182,12226294259600,160315.0,23.0
3189,31890.0,1790707277192,12226304321900,160335.0,37.0
3190,31900.0,1790707277203,12226314491700,160440.0,31.0
3191,31910.0,1790707277212,12226324108100,160455.0,45.0
3192,31920.0,1790707277222,12226333869800,160552.0,50.0
3193,31930.0,1790707277232,12226343610400,160454.0,43.0
3194,31940.0,1790707277242,12226353541500,160472.0,52.0
3195,31950.0,1790707277251,12226363120600,160408.0,33.0
3196,31960.0,1790707277261,12226373408200,160409.0,47.0
3197,31970.0,1790707277272,12226383561300,160248.0,39.0
3198,31980.0,1790707277282,12226393630600,160176.0,30.0
3199,31990.0,1790707277292,12226403787200,160174.0,48.0
3200,32000.0,1790707277302,12226413753200,160350.0,32.0
3201,32010.0,1790707277312,12226423896200,160363.0,49.0
3202,32020.0,1790707277322,12226434180600,160477.0,47.0
3203,32030.0,1790707277332,12226443904100,160564.0,45.0
3204,32040.0,1790707277342,12226454366200,160736.0,43.0
3205,32050.0,1790707277353,12226464530900,160641.0,43.0
3206,32060.0,1790707277363,12226474521500,160537.0,20.0
3207,32070.0,1790707277373,12226484577700,160445.0,38.0
3208,32080.0,1790707277382,12226494384300,160409.0,43.0
3209,32090.0,1790707277392,12226504324000,160275.0,33.0
3210,32100.0,1790707277403,12226514708500,160267.0,45.0
3211,32110.0,1790707277412,12226524210800,160313.0,48.0
3212,32120.0,1790707277423,12226534688300,160666.0,44.0
3213,32130.0,1790707277433,12226544952200,160803.0,43.0
3214,32140.0,1790707277443,12226554748400,160987.0,65.0
3215,32150.0,1790707277453,12226564994600,161016.0,31.0
3216,32160.0,1790707277462,12226574133300,161086.0,43.0
3217,32170.0,1790707277472,12226584228500,160948.0,34.0
3218,32180.0,1790707277482,12226594256800,160793.0,48.0
3219,32190.0,1790707277492,12226603841900,160464.0,34.0
3220,32200.0,1790707277502,12226614415800,160213.0,61.0
3221,32210.0,1790707277512,12226624021200,159964.0,53.0
3222,32220.0,1790707277522,12226633984000,159933.0,33.0
3223,32230.0,1790707277532,12226643825400,159811.0,63.0
3224,32240.0,1790707277542,12226653908200,159817.0,35.0
3225,32250.0,1790707277552,12226664236400,159742.0,34.0
3226,32260.0,1790707277562,12226674436300,159710.0,37.0
3227,32270.0,1790707277573,12226684497800,159728.0,40.0
3228,32280.0,1790707277583,12226694547900,159640.0,30.0
3229,32290.0,1790707277592,12226704109600,159609.0,45.0
3230,32300.0,1790707277603,12226714671900,159498.0,38.0
3231,32310.0,1790707277613,12226724825800,159440.0,40.0
3232,32320.0,1790707277623,12226735138200,159484.0,49.0
3233,32330.0,1790707277633,12226745111200,159618.0,49.0
3234,32340.0,1790707277643,12226754659900,159710.0,53.0
3235,32350.0,1790707277654,12226765565300,159745.0,34.0
3236,32360.0,1790707277663,12226774795400,159849.0,45.0
3237,32370.0,1790707277672,12226784406500,159883.0,58.0
3238,32380.0,1790707277683,12226794677600,159967.0,44.0
3239,32390.0,1790707277692,12226804271700,159882.0,42.0
3240,32400.0,1790707277702,12226814444300,159913.0,39.0
3241,32410.0,1790707277713,12226824641400,159845.0,44.0
3242,32420.0,1790707277726,12226838221000,159871.0,39.0
3243,32430.0,1790707277852,12226964332000,159810.0,55.0
3244,32440.0,1790707277854,12226966124400,159875.0,53.0
3245,32450.0,1790707277856,12226967488800,159878.0,39.0
3246,32460.0,1790707277857,12226968906500,159948.0,58.0
3247,32470.0,1790707277858,12226970323400,159873.0,55.0
3248,32480.0,1790707277860,12226972188900,159822.0,26.0
3249,32490.0,1790707277861,12226973377500,159670.0,44.0
3250,32500.0,1790707277863,12226974548700,159633.0,36.0
3251,32510.0,1790707277864,12226975954100,159530.0,47.0
3252,32520.0,1790707277865,12226977247900,159533.0,37.0
3253,32530.0,1790707277866,12226978412400,159457.0,44.0
3254,32540.0,1790707277868,12226979531300,159508.0,38.0
3255,32550.0,1790707277869,12226980626800,159530.0,56.0
3256,32560.0,1790707277870,12226981729500,159526.0,52.0
3257,32570.0,1790707277872,12226984370300,159488.0,47.0
3258,32580.0,1790707277882,12226994392500,159577.0,38.0
3259,32590.0,1790707277893,12227004474500,159619.0,37.0
3260,32600.0,1790707277902,12227014460700,159698.0,47.0
3261,32610.0,1790707277913,12227024553900,159700.0,38.0
3262,32620.0,1790707277923,12227034507900,159713.0,52.0
3263,32630.0,1790707277933,12227044611000,159708.0,47.0
3264,32640.0,1790707277943,12227054561900,159613.0,48.0
3265,32650.0,1790707277953,12227064642900,159591.0,56.0
3266,32660.0,1790707277963,12227074659800,159625.0,50.0
3267,32670.0,1790707277973,12227084730900,159535.0,52.0
3268,32680.0,1790707277983,12227094741700,159588.0,41.0
3269,32690.0,1790707277993,12227104780800,159564.0,48.0
3270,32700.0,1790707278004,12227115989500,159546.0,42.0
3271,32710.0,1790707278014,12227125918800,159505.0,32.0
3272,32720.0,1790707278024,12227136198200,159537.0,45.0
3273,32730.0,1790707278034,12227146333500,159496.0,44.0
3274,32740.0,1790707278044,12227156382300,159547.0,54.0
3275,32750.0,1790707278054,12227166464900,159464.0,38.0
3276,32760.0,1790707278064,12227176041700,159534.0,46.0
3277,32770.0,1790707278076,12227188040900,159483.0,43.0
3278,32780.0,1790707278085,12227196504400,159448.0,34.0
3279,32790.0,1790707278094,12227206089400,159341.0,42.0
3280,32800.0,1790707278104,12227216258000,159268.0,46.0
3281,32810.0,1790707278115,12227226553200,159166.0,32.0
3282,32820.0,1790707278124,12227236032400,159135.0,34.0
3283,32830.0,1790707278134,12227245577700,159106.0,39.0
3284,32840.0,1790707278143,12227255276100,159129.0,44.0
3285,32850.0,1790707278153,12227265138500,159115.0,53.0
3286,32860.0,1790707278164,12227275558100,159135.0,55.0
3287,32870.0,1790707278173,12227285110000,159074.0,45.0
3288,32880.0,1790707278184,12227295545800,159156.0,37.0
3289,32890.0,1790707278194,12227305506500,159145.0,62.0
3290,32900.0,1790707278203,12227315268300,159163.0,37.0
3291,32910.0,1790707278214,12227325705700,159096.0,38.0
3292,32920.0,1790707278224,12227335724700,159047.0,57.0
3293,32930.0,1790707278234,12227345817200,158990.0,39.0
3294,32940.0,1790707278244,12227355608100,158973.0,49.0
3295,32950.0,1790707278254,12227365719200,158965.0,45.0
3296,32960.0,1790707278264,12227375876700,159053.0,49.0
3297,32970.0,1790707278274,12227386247500,159081.0,32.0
3298,32980.0,1790707278284,12227395826500,159143.0,52.0
3299,32990.0,1790707278294,12227405738800,159143.0,34.0
3300,33000.0,1790707278304,12227415966600,159197.0,59.0
3301,33010.0,1790707278314,12227426140300,159268.0,46.0
3302,33020.0,1790707278324,12227436352500,159340.0,36.0
3303,33030.0,1790707278335,12227446698000,159384.0,23.0
3304,33040.0,1790707278345,12227456748900,159527.0,49.0
3305,33050.0,1790707278355,12227466815400,159560.0,57.0
3306,33060.0,1790707278365,12227476883700,159587.0,51.0
3307,33070.0,1790707278375,12227487308000,159596.0,63.0
3308,33080.0,1790707278385,12227496950600,159698.0,53.0
3309,33090.0,1790707278395,12227507182100,159781.0,49.0
3310,33100.0,1790707278405,12227517291000,159775.0,51.0
3311,33110.0,1790707278415,12227527251200,159741.0,41.0
3312,33120.0,1790707278425,12227537321000,159728.0,59.0
3313,33130.0,1790707278435,12227547420500,159750.0,56.0
3314,33140.0,1790707278445,12227557185500,159766.0,48.0
3315,33150.0,1790707278455,12227567458100,159769.0,45.0
3316,33160.0,1790707278465,12227577053000,159657.0,63.0
3317,33170.0,1790707278475,12227587342600,159614.0,59.0
3318,33180.0,1790707278485,12227596653800,159614.0,49.0
3319,33190.0,1790707278495,12227606551300,159634.0,41.0
3320,33200.0,1790707278505,12227616739000,159632.0,43.0
3321,33210.0,1790707278515,12227626750600,159677.0,48.0
3322,33220.0,1790707278525,12227636807800,159720.0,45.0
3323,33230.0,1790707278535,12227646818900,159651.0,50.0
3324,33240.0,1790707278545,12227656809800,159541.0,44.0
3325,33250.0,1790707278555,12227666915600,159427.0,51.0
3326,33260.0,1790707278565,12227676965800,159337.0,53.0
3327,33270.0,1790707278577,12227688898200,159298.0,57.0
3328,33280.0,1790707278585,12227697184200,159238.0,50.0
3329,33290.0,1790707278595,12227707394100,159150.0,52.0
3330,33300.0,1790707278606,12227717526100,159120.0,46.0
3331,33310.0,1790707278616,12227727698000,159069.0,44.0
3332,33320.0,1790707278625,12227737417800,159051.0,45.0
3333,33330.0,1790707278636,12227747784500,159090.0,26.0
3334,33340.0,1790707278646,12227757722700,159191.0,51.0
3335,33350.0,1790707278656,12227767647500,159318.0,40.0
3336,33360.0,1790707278666,12227777470500,159447.0,56.0
3337,33370.0,1790707278676,12227787546000,159613.0,38.0
3338,33380.0,1790707278686,12227797843100,159706.0,52.0
3339,33390.0,1790707278696,12227807741500,159736.0,59.0
3340,33400.0,1790707278706,12227817764400,159758.0,52.0
3341,33410.0,1790707278716,12227827765400,159838.0,36.0
3342,33420.0,1790707278728,12227840305200,159860.0,48.0
3343,33430.0,1790707278739,12227850646900,159810.0,32.0
3344,33440.0,1790707278862,12227974434500,159747.0,52.0
3345,33450.0,1790707278864,12227976029000,159701.0,49.0
3346,33460.0,1790707278865,12227977376500,159644.0,49.0
3347,33470.0,1790707278867,12227978672000,159638.0,55.0
3348,33480.0,1790707278868,12227979928500,159655.0,58.0
3349,33490.0,1790707278869,12227981189600,159714.0,44.0
3350,33500.0,1790707278870,12227982418500,159736.0,57.0
3351,33510.0,1790707278872,12227983651700,159871.0,42.0
3352,33520.0,1790707278873,12227985331700,159889.0,49.0
3353,33530.0,1790707278877,12227988746600,159910.0,39.0
3354,33540.0,1790707278878,12227990044700,159852.0,28.0
3355,33550.0,1790707278879,12227991177100,159813.0,20.0
3356,33560.0,1790707278880,12227992300700,159713.0,40.0
3357,33570.0,1790707278881,12227993400400,159669.0,47.0
3358,33580.0,1790707278885,12227996742300,159588.0,54.0
3359,33590.0,1790707278895,12228006774100,159566.0,32.0
3360,33600.0,1790707278905,12228016471800,159611.0,40.0
3361,33610.0,1790707278915,12228026496500,159678.0,36.0
3362,33620.0,1790707278925,12228036566500,159666.0,44.0
3363,33630.0,1790707278935,12228046599500,159631.0,43.0
3364,33640.0,1790707278945,12228056677300,159484.0,36.0
3365,33650.0,1790707278955,12228066634800,159491.0,37.0
3366,33660.0,1790707278965,12228076705700,159398.0,31.0
3367,33670.0,1790707278975,12228086744100,159349.0,60.0
3368,33680.0,1790707278985,12228097061000,159318.0,41.0
3369,33690.0,1790707278995,12228106795500,159338.0,37.0
3370,33700.0,1790707279005,12228116828600,159321.0,60.0
3371,33710.0,1790707279015,12228126796900,159327.0,42.0
3372,33720.0,1790707279027,12228138554300,159355.0,47.0
3373,33730.0,1790707279036,12228147604800,159381.0,39.0
3374,33740.0,1790707279045,12228157424500,159428.0,29.0
3375,33750.0,1790707279055,12228167430600,159413.0,38.0
3376,33760.0,1790707279065,12228177426800,159419.0,43.0
3377,33770.0,1790707279076,12228187588900,159446.0,48.0
3378,33780.0,1790707279086,12228197713000,159468.0,40.0
3379,33790.0,1790707279096,12228207750900,159493.0,35.0
3380,33800.0,1790707279106,12228217942000,159492.0,45.0
3381,33810.0,1790707279116,12228227884000,159583.0,51.0
3382,33820.0,1790707279125,12228237338000,159699.0,45.0
3383,33830.0,1790707279136,12228247924600,159991.0,42.0
3384,33840.0,1790707279145,12228257377000,160324.0,37.0
3385,33850.0,1790707279155,12228267197300,160422.0,40.0
3386,33860.0,1790707279165,12228277176200,160786.0,39.0
3387,33870.0,1790707279175,12228287404900,161042.0,44.0
3388,33880.0,1790707279186,12228297680900,161454.0,37.0
3389,33890.0,1790707279196,12228307631200,161391.0,41.0
3390,33900.0,1790707279205,12228317199300,161325.0,42.0
3391,33910.0,1790707279216,12228327724200,161291.0,50.0
3392,33920.0,1790707279226,12228337633600,160999.0,47.0
3393,33930.0,1790707279236,12228347700700,160886.0,42.0
3394,33940.0,1790707279246,12228357894300,160691.0,34.0
3395,33950.0,1790707279256,12228368041900,160544.0,28.0
3396,33960.0,1790707279267,12228378511900,160378.0,48.0
3397,33970.0,1790707279276,12228388021400,160267.0,34.0
3398,33980.0,1790707279286,12228397861000,160067.0,40.0
3399,33990.0,1790707279296,12228407987900,160045.0,34.0
3400,34000.0,1790707279306,12228418358400,160035.0,48.0
3401,34010.0,1790707279316,12228428200000,159991.0,43.0
3402,34020.0,1790707279326,12228438253500,159990.0,48.0
3403,34030.0,1790707279336,12228447682400,160018.0,43.0
3404,34040.0,1790707279346,12228457737900,159932.0,56.0
3405,34050.0,1790707279356,12228467873100,159891.0,30.0
3406,34060.0,1790707279366,12228477884700,159901.0,39.0
3407,34070.0,1790707279376,12228487840000,159961.0,31.0
3408,34080.0,1790707279386,12228497860900,159909.0,46.0
3409,34090.0,1790707279396,12228507961500,159862.0,32.0
3410,34100.0,1790707279406,12228518232800,159787.0,44.0
3411,34110.0,1790707279416,12228528260600,159814.0,64.0
3412,34120.0,1790707279426,12228538133400,159820.0,45.0
3413,34130.0,1790707279437,12228548875600,159924.0,48.0
3414,34140.0,1790707279448,12228559537500,159976.0,53.0
3415,34150.0,1790707279458,12228569870800,160068.0,30.0
3416,34160.0,1790707279468,12228579779800,160110.0,30.0
3417,34170.0,1790707279478,12228589703900,160244.0,36.0
3418,34180.0,1790707279488,12228599523800,160261.0,34.0
3419,34190.0,1790707279497,12228608716400,160335.0,36.0
3420,34200.0,1790707279507,12228618839600,160333.0,50.0
3421,34210.0,1790707279517,12228628766700,160413.0,45.0
3422,34220.0,1790707279526,12228638238500,160399.0,44.0
3423,34230.0,1790707279537,12228648878600,160451.0,45.0
3424,34240.0,1790707279547,12228658707700,160389.0,63.0
3425,34250.0,1790707279557,12228668957800,160389.0,33.0
3426,34260.0,1790707279567,12228679302400,160338.0,24.0
3427,34270.0,1790707279578,12228689665000,160428.0,46.0
3428,34280.0,1790707279588,12228699837100,160447.0,40.0
3429,34290.0,1790707279598,12228709831100,160596.0,35.0
3430,34300.0,1790707279608,12228719905600,160589.0,36.0
3431,34310.0,1790707279618,12228729885500,160669.0,47.0
3432,34320.0,1790707279628,12228739694100,160649.0,35.0
3433,34330.0,1790707279638,12228749813400,160688.0,42.0
3434,34340.0,1790707279648,12228759915000,160626.0,40.0
3435,34350.0,1790707279658,12228769738200,160671.0,50.0
3436,34360.0,1790707279668,12228779641300,160561.0,47.0
3437,34370.0,1790707279678,12228789819400,160565.0,51.0
3438,34380.0,1790707279688,12228799893200,160523.0,33.0
3439,34390.0,1790707279698,12228810070300,160565.0,29.0
3440,34400.0,1790707279708,12228819803700,160467.0,50.0
3441,34410.0,1790707279740,12228852238400,160529.0,37.0
3442,34420.0,1790707279743,12228854691100,160496.0,34.0
3443,34430.0,1790707279744,12228855895900,160493.0,46.0
3444,34440.0,1790707279794,12228905780900,160391.0,47.0
3445,34450.0,1790707279889,12229001002800,160413.0,44.0
3446,34460.0,1790707279892,12229004089400,160432.0,49.0
3447,34470.0,1790707279893,12229005263200,160529.0,37.0
3448,34480.0,1790707279894,12229006222100,160463.0,37.0
3449,34490.0,1790707279895,12229007203600,160455.0,41.0
3450,34500.0,1790707279896,12229008207800,160366.0,43.0
3451,34510.0,1790707279897,12229009182400,160475.0,38.0
3452,34520.0,1790707279898,12229010151000,160617.0,34.0
3453,34530.0,1790707279901,12229012851800,160663.0,58.0
3454,34540.0,1790707279902,12229013932000,160672.0,50.0
3455,34550.0,1790707279903,12229014892900,160767.0,29.0
3456,34560.0,1790707279904,12229015824600,160767.0,60.0
3457,34570.0,1790707279905,12229016778100,160869.0,38.0
3458,34580.0,1790707279906,12229017936000,160880.0,47.0
3459,34590.0,1790707279907,12229019194500,161018.0,42.0
3460,34600.0,1790707279909,12229020900400,161038.0,37.0
3461,34610.0,1790707279917,12229028801400,161202.0,28.0
3462,34620.0,1790707279927,12229038944200,161231.0,37.0
3463,34630.0,1790707279937,12229048922000,161326.0,41.0
3464,34640.0,1790707279947,12229059001000,161295.0,40.0
3465,34650.0,1790707279957,12229069025900,161276.0,39.0
3466,34660.0,1790707279967,12229079032400,161296.0,52.0
3467,34670.0,1790707279977,12229089065300,161514.0,53.0
3468,34680.0,1790707279987,12229099356500,161488.0,41.0
3469,34690.0,1790707279997,12229108877600,161539.0,31.0
3470,34700.0,1790707280007,12229119015000,161405.0,27.0
3471,34710.0,1790707280017,12229129361300,161280.0,34.0
3472,34720.0,1790707280027,12229139180000,161220.0,29.0
3473,34730.0,1790707280037,12229149424600,161254.0,29.0
3474,34740.0,1790707280047,12229159302000,161226.0,40.0
3475,34750.0,1790707280057,12229169146100,161344.0,52.0
3476,34760.0,1790707280067,12229179263700,161362.0,46.0
3477,34770.0,1790707280077,12229189296500,161424.0,48.0
3478,34780.0,1790707280087,12229199289000,161375.0,69.0
3479,34790.0,1790707280097,12229209370200,161422.0,40.0
3480,34800.0,1790707280107,12229219249900,161309.0,46.0
3481,34810.0,1790707280118,12229229732400,161333.0,47.0
3482,34820.0,1790707280128,12229239855000,161207.0,28.0
3483,34830.0,1790707280137,12229249462200,161186.0,47.0
3484,34840.0,1790707280148,12229259803500,161057.0,53.0
3485,34850.0,1790707280157,12229269445900,161051.0,58.0
3486,34860.0,1790707280169,12229280896200,160985.0,51.0
3487,34870.0,1790707280179,12229291369200,161176.0,48.0
3488,34880.0,1790707280189,12229301201000,161211.0,46.0
3489,34890.0,1790707280199,12229311107000,161353.0,41.0
3490,34900.0,1790707280209,12229321159600,161325.0,37.0
3491,34910.0,1790707280218,12229329991100,161444.0,32.0
3492,34920.0,1790707280228,12229339711100,161363.0,27.0
3493,34930.0,1790707280238,12229349572900,161375.0,46.0
3494,34940.0,1790707280248,12229359504900,161240.0,45.0
3495,34950.0,1790707280258,12229369485500,161196.0,32.0
3496,34960.0,1790707280267,12229379422400,161058.0,47.0
3497,34970.0,1790707280278,12229389669300,161034.0,52.0
3498,34980.0,1790707280288,12229399697700,160900.0,41.0
3499,34990.0,1790707280298,12229409665600,160875.0,49.0
3500,35000.0,1790707280309,12229420530000,160771.0,50.0
3501,35010.0,1790707280319,12229430863900,160846.0,32.0
3502,35020.0,1790707280329,12229440494200,160830.0,42.0
3503,35030.0,1790707280339,12229450497900,160962.0,33.0
3504,35040.0,1790707280349,12229460785900,160994.0,40.0
3505,35050.0,1790707280359,12229470583500,161072.0,26.0
3506,35060.0,1790707280369,12229480761600,161069.0,31.0
3507,35070.0,1790707280379,12229491264200,161168.0,33.0
3508,35080.0,1790707280390,12229501689600,161152.0,44.0
3509,35090.0,1790707280399,12229511240300,161266.0,45.0
3510,35100.0,1790707280409,12229521168500,161205.0,47.0
3511,35110.0,1790707280419,12229531029500,161234.0,47.0
3512,35120.0,1790707280429,12229540886900,161112.0,47.0
3513,35130.0,1790707280439,12229550724200,161013.0,39.0
3514,35140.0,1790707280450,12229561714700,160876.0,40.0
3515,35150.0,1790707280460,12229571675700,160910.0,35.0
3516,35160.0,1790707280470,12229581893000,160937.0,36.0
3517,35170.0,1790707280480,12229591840100,161100.0,30.0
3518,35180.0,1790707280489,12229601320100,160955.0,37.0
3519,35190.0,1790707280500,12229612007200,161044.0,24.0
3520,35200.0,1790707280510,12229621863400,160912.0,42.0
3521,35210.0,1790707280520,12229631921100,160999.0,43.0
3522,35220.0,1790707280530,12229641958800,160963.0,41.0
3523,35230.0,1790707280540,12229652039100,161076.0,35.0
3524,35240.0,1790707280550,12229662415000,161041.0,36.0
3525,35250.0,1790707280560,12229671732400,161036.0,40.0
3526,35260.0,1790707280570,12229681668800,160852.0,28.0
3527,35270.0,1790707280580,12229691558700,160750.0,28.0
3528,35280.0,1790707280589,12229700848000,160673.0,26.0
3529,35290.0,1790707280599,12229710622000,160780.0,30.0
3530,35300.0,1790707280609,12229720505800,160843.0,52.0
3531,35310.0,1790707280619,12229730725900,161082.0,42.0
3532,35320.0,1790707280629,12229740831000,161136.0,48.0
3533,35330.0,1790707280639,12229750747700,161213.0,37.0
3534,35340.0,1790707280649,12229760640500,161171.0,49.0
3535,35350.0,1790707280659,12229770627500,161225.0,30.0
3536,35360.0,1790707280669,12229780711400,161003.0,36.0
3537,35370.0,1790707280679,12229790857800,160900.0,18.0
3538,35380.0,1790707280689,12229801223700,160652.0,28.0
3539,35390.0,1790707280699,12229811174700,160638.0,28.0
3540,35400.0,1790707280717,12229829053200,160515.0,33.0
3541,35410.0,1790707280729,12229841091200,160598.0,32.0
3542,35420.0,1790707280730,12229842428400,160620.0,30.0
3543,35430.0,1790707280808,12229920206400,160815.0,30.0
3544,35440.0,1790707280863,12229974512200,160741.0,37.0
3545,35450.0,1790707280864,12229976005400,160731.0,40.0
3546,35460.0,1790707280865,12229977254300,160579.0,32.0
3547,35470.0,1790707280866,12229978403000,160623.0,27.0
3548,35480.0,1790707280868,12229979593000,160536.0,27.0
3549,35490.0,1790707280869,12229980811400,160619.0,26.0
3550,35500.0,1790707280870,12229981981500,160536.0,44.0
3551,35510.0,1790707280871,12229983167800,160622.0,47.0
3552,35520.0,1790707280873,12229984557500,160578.0,31.0
3553,35530.0,1790707280875,12229986505500,160676.0,52.0
3554,35540.0,1790707280876,12229987860500,160718.0,24.0
3555,35550.0,1790707280877,12229989049200,160988.0,14.0
3556,35560.0,1790707280878,12229990298500,161054.0,37.0
3557,35570.0,1790707280880,12229991535600,161206.0,28.0
3558,35580.0,1790707280889,12230001152100,161194.0,14.0
3559,35590.0,1790707280899,12230010879400,161290.0,23.0
3560,35600.0,1790707280909,12230020931900,161218.0,19.0
3561,35610.0,1790707280919,12230030845900,161235.0,19.0
3562,35620.0,1790707280929,12230040914900,161013.0,14.0
3563,35630.0,1790707280939,12230050987700,160849.0,26.0
3564,35640.0,1790707280949,12230061230500,160490.0,21.0
3565,35650.0,1790707280959,12230071029600,160272.0,37.0
3566,35660.0,1790707280969,12230081106800,159999.0,49.0
3567,35670.0,1790707280979,12230091184000,160014.0,37.0
3568,35680.0,1790707280989,12230101212000,159909.0,27.0
3569,35690.0,1790707280999,12230111389100,160066.0,32.0
3570,35700.0,1790707281009,12230121294800,160042.0,23.0
3571,35710.0,1790707281019,12230131325700,160196.0,25.0
3572,35720.0,1790707281029,12230141242700,160181.0,29.0
3573,35730.0,1790707281039,12230151427900,160236.0,33.0
3574,35740.0,1790707281050,12230161910900,160150.0,30.0
3575,35750.0,1790707281060,12230171652600,160232.0,44.0
3576,35760.0,1790707281069,12230181436000,160101.0,45.0
3577,35770.0,1790707281079,12230191179100,160214.0,52.0
3578,35780.0,1790707281089,12230201189300,160229.0,42.0
3579,35790.0,1790707281100,12230211674500,160370.0,32.0
3580,35800.0,1790707281111,12230222822500,160306.0,45.0
3581,35810.0,1790707281121,12230233261700,160441.0,33.0
3582,35820.0,1790707281130,12230242435800,160392.0,51.0
3583,35830.0,1790707281140,12230251896800,160573.0,46.0
3584,35840.0,1790707281150,12230261860900,160535.0,33.0
3585,35850.0,1790707281160,12230272117400,160627.0,22.0
3586,35860.0,1790707281170,12230281968100,160615.0,50.0
3587,35870.0,1790707281180,12230292044200,160719.0,47.0
3588,35880.0,1790707281190,12230301783800,160718.0,36.0
3589,35890.0,1790707281201,12230313386300,160795.0,38.0
3590,35900.0,1790707281211,12230323133100,160698.0,33.0
3591,35910.0,1790707281221,12230332555400,160732.0,33.0
3592,35920.0,1790707281230,12230342424100,160558.0,39.0
3593,35930.0,1790707281240,12230352268500,160524.0,19.0
3594,35940.0,1790707281250,12230362194100,160337.0,38.0
3595,35950.0,1790707281261,12230372688300,160331.0,35.0
3596,35960.0,1790707281271,12230382482400,160166.0,44.0
3597,35970.0,1790707281282,12230393891400,160276.0,56.0
3598,35980.0,1790707281292,12230403954500,160306.0,49.0
3599,35990.0,1790707281301,12230413059800,160410.0,41.0
3600,36000.0,1790707281311,12230422656300,160353.0,44.0
3601,36010.0,1790707281320,12230432164000,160454.0,26.0
3602,36020.0,1790707281330,12230441847800,160406.0,30.0
3603,36030.0,1790707281340,12230452072800,160443.0,45.0
3604,36040.0,1790707281351,12230463330600,160272.0,44.0
3605,36050.0,1790707281362,12230473519500,160274.0,43.0
3606,36060.0,1790707281371,12230482771500,160149.0,32.0
3607,36070.0,1790707281381,12230492552600,160230.0,45.0
3608,36080.0,1790707281391,12230502587600,160135.0,47.0
3609,36090.0,1790707281401,12230512813600,160179.0,33.0
3610,36100.0,1790707281411,12230522660900,160059.0,49.0
3611,36110.0,1790707281420,12230532355200,160102.0,26.0
3612,36120.0,1790707281431,12230542677900,160045.0,33.0
3613,36130.0,1790707281441,12230552948100,160170.0,16.0
3614,36140.0,1790707281451,12230562830800,160074.0,36.0
3615,36150.0,1790707281460,12230572279900,160144.0,35.0
3616,36160.0,1790707281471,12230582854300,160126.0,30.0
3617,36170.0,1790707281480,12230592376100,160253.0,45.0
3618,36180.0,1790707281492,12230604080400,160174.0,40.0
3619,36190.0,1790707281502,12230614135400,160260.0,30.0
3620,36200.0,1790707281512,12230623725300,160200.0,33.0
3621,36210.0,1790707281521,12230633435900,160287.0,45.0
3622,36220.0,1790707281531,12230642788200,160203.0,30.0
3623,36230.0,1790707281541,12230652867700,160229.0,35.0
3624,36240.0,1790707281551,12230663101400,160163.0,28.0
3625,36250.0,1790707281561,12230672991300,160255.0,25.0
3626,36260.0,1790707281571,12230683371900,160338.0,30.0
3627,36270.0,1790707281581,12230692665100,160626.0,46.0
3628,36280.0,1790707281591,12230702887400,160677.0,49.0
3629,36290.0,1790707281601,12230712855900,160817.0,39.0
3630,36300.0,1790707281611,12230723144800,160816.0,42.0
3631,36310.0,1790707281621,12230733344000,160971.0,40.0
3632,36320.0,1790707281631,12230743073400,160995.0,45.0
3633,36330.0,1790707281641,12230753229000,161152.0,33.0
3634,36340.0,1790707281651,12230763208000,161067.0,29.0
3635,36350.0,1790707281661,12230773374600,161235.0,45.0
3636,36360.0,1790707281671,12230783276900,161218.0,27.0
3637,36370.0,1790707281682,12230793667200,161290.0,24.0
3638,36380.0,1790707281691,12230802895300,161100.0,44.0
3639,36390.0,1790707281701,12230812757000,161099.0,56.0
3640,36400.0,1790707281711,12230823052400,160997.0,46.0
3641,36410.0,1790707281725,12230836576900,160963.0,42.0
3642,36420.0,1790707281793,12230905148500,160824.0,29.0
3643,36430.0,1790707281850,12230962014600,160796.0,37.0
3644,36440.0,1790707281852,12230963491700,160654.0,57.0
3645,36450.0,1790707281853,12230964801200,160702.0,36.0
3646,36460.0,1790707281854,12230965966200,160678.0,28.0
3647,36470.0,1790707281856,12230967554300,160821.0,42.0
3648,36480.0,1790707281857,12230968891300,160816.0,44.0
3649,36490.0,1790707281858,12230970093100,160933.0,38.0
3650,36500.0,1790707281859,12230971296400,160918.0,61.0
3651,36510.0,1790707281860,12230972450300,161039.0,50.0
3652,36520.0,1790707281863,12230975012500,160983.0,50.0
3653,36530.0,1790707281865,12230977425600,161043.0,28.0
3654,36540.0,1790707281867,12230978659300,160979.0,40.0
3655,36550.0,1790707281868,12230979862700,160987.0,27.0
3656,36560.0,1790707281871,12230983158800,160941.0,46.0
3657,36570.0,1790707281881,12230993101900,161011.0,49.0
3658,36580.0,1790707281891,12231003101100,160967.0,33.0
3659,36590.0,1790707281901,12231013205500,161035.0,42.0
3660,36600.0,1790707281911,12231022937800,161024.0,41.0
3661,36610.0,1790707281921,12231033034200,161113.0,37.0
3662,36620.0,1790707281931,12231043312600,161081.0,46.0
3663,36630.0,1790707281942,12231053657700,161113.0,25.0
3664,36640.0,1790707281951,12231063071800,160943.0,49.0
3665,36650.0,1790707281961,12231073451700,160879.0,40.0
3666,36660.0,1790707281971,12231083387500,160750.0,44.0
3667,36670.0,1790707281981,12231093131700,160715.0,33.0
3668,36680.0,1790707281991,12231103136900,160606.0,41.0
3669,36690.0,1790707282001,12231113164800,160676.0,44.0
3670,36700.0,1790707282011,12231123251600,160697.0,48.0
3671,36710.0,1790707282021,12231133305800,160867.0,46.0
3672,36720.0,1790707282032,12231143505000,160908.0,49.0
3673,36730.0,1790707282041,12231153462000,160989.0,34.0
3674,36740.0,1790707282052,12231164458700,160920.0,38.0
3675,36750.0,1790707282062,12231174040700,160907.0,32.0
3676,36760.0,1790707282072,12231183971300,160715.0,34.0
3677,36770.0,1790707282082,12231194160000,160628.0,34.0
3678,36780.0,1790707282092,12231204070700,160514.0,49.0
3679,36790.0,1790707282102,12231214289000,160521.0,42.0
3680,36800.0,1790707282112,12231224431000,160492.0,47.0
3681,36810.0,1790707282122,12231234188800,160643.0,66.0
3682,36820.0,1790707282132,12231244091400,160821.0,48.0
3683,36830.0,1790707282142,12231253935400,161404.0,36.0
3684,36840.0,1790707282152,12231264242400,161827.0,37.0
3685,36850.0,1790707282162,12231274267800,162158.0,13.0
3686,36860.0,1790707282172,12231284010600,162327.0,32.0
3687,36870.0,1790707282182,12231294347600,162829.0,30.0
3688,36880.0,1790707282192,12231304003300,162934.0,30.0
3689,36890.0,1790707282202,12231314409700,162869.0,34.0
3690,36900.0,1790707282212,12231324443100,162769.0,32.0
3691,36910.0,1790707282222,12231334134700,162631.0,40.0
3692,36920.0,1790707282232,12231344329800,162120.0,33.0
3693,36930.0,1790707282242,12231354358300,161546.0,43.0
3694,36940.0,1790707282253,12231364610000,161063.0,33.0
3695,36950.0,1790707282262,12231374407300,160911.0,45.0
3696,36960.0,1790707282272,12231384157300,160641.0,36.0
3697,36970.0,1790707282282,12231394021600,160584.0,37.0
3698,36980.0,1790707282292,12231404322900,160657.0,44.0
3699,36990.0,1790707282302,12231414439400,160821.0,48.0
3700,37000.0,1790707282312,12231424131500,160831.0,36.0
3701,37010.0,1790707282322,12231434141600,160834.0,53.0
3702,37020.0,1790707282332,12231444079100,160743.0,46.0
3703,37030.0,1790707282342,12231454048200,160802.0,37.0
3704,37040.0,1790707282352,12231464003300,160777.0,34.0
3705,37050.0,1790707282362,12231474273300,160809.0,34.0
3706,37060.0,1790707282372,12231483992400,160718.0,31.0
3707,37070.0,1790707282382,12231494096800,160677.0,49.0
3708,37080.0,1790707282394,12231505687300,160640.0,39.0
3709,37090.0,1790707282403,12231514783400,160765.0,43.0
3710,37100.0,1790707282412,12231524428800,160648.0,41.0
3711,37110.0,1790707282463,12231574543800,160677.0,50.0
3712,37120.0,1790707282480,12231591850600,160567.0,48.0
3713,37130.0,1790707282482,12231594005400,160652.0,30.0
3714,37140.0,1790707282484,12231595730100,160530.0,37.0
3715,37150.0,1790707282485,12231597034700,160574.0,43.0
3716,37160.0,1790707282486,12231598230500,160539.0,35.0
3717,37170.0,1790707282488,12231599544400,160605.0,33.0
3718,37180.0,1790707282493,12231604967100,160683.0,35.0
3719,37190.0,1790707282503,12231615280800,160774.0,39.0
3720,37200.0,1790707282513,12231624530500,160748.0,55.0
3721,37210.0,1790707282523,12231634836000,160783.0,41.0
3722,37220.0,1790707282533,12231644549600,160690.0,48.0
3723,37230.0,1790707282543,12231654475000,160653.0,48.0
3724,37240.0,1790707282552,12231664152700,160510.0,44.0
3725,37250.0,1790707282562,12231674317300,160426.0,42.0
3726,37260.0,1790707282575,12231687125400,160290.0,41.0
3727,37270.0,1790707282585,12231697031900,160300.0,37.0
3728,37280.0,1790707282594,12231705848600,160271.0,50.0
3729,37290.0,1790707282604,12231716348400,160345.0,41.0
3730,37300.0,1790707282614,12231725846900,160347.0,57.0
3731,37310.0,1790707282625,12231736885000,160438.0,58.0
3732,37320.0,1790707282634,12231745831900,160371.0,47.0
3733,37330.0,1790707282644,12231755967400,160400.0,42.0
3734,37340.0,1790707282654,12231766335600,160364.0,42.0
3735,37350.0,1790707282664,12231776340000,160378.0,31.0
3736,37360.0,1790707282674,12231786230200,160319.0,42.0
3737,37370.0,1790707282684,12231796379600,160352.0,54.0
3738,37380.0,1790707282694,12231806285500,160299.0,44.0
3739,37390.0,1790707282705,12231816806100,160320.0,51.0
3740,37400.0,1790707282715,12231826689700,160247.0,52.0
3741,37410.0,1790707282725,12231836660000,160256.0,51.0
3742,37420.0,1790707282735,12231846640900,160176.0,43.0
3743,37430.0,1790707282744,12231856097100,160135.0,31.0
3744,37440.0,1790707282755,12231866692800,160049.0,45.0
3745,37450.0,1790707282765,12231876510000,160054.0,39.0
3746,37460.0,1790707282774,12231886266500,159993.0,45.0
3747,37470.0,1790707282785,12231896629100,160016.0,35.0
3748,37480.0,1790707282794,12231906269800,159971.0,33.0
3749,37490.0,1790707282805,12231916873000,160014.0,54.0
3750,37500.0,1790707282815,12231926539400,159988.0,57.0
3751,37510.0,1790707282825,12231936537200,160042.0,46.0
3752,37520.0,1790707282835,12231946845300,160072.0,50.0
3753,37530.0,1790707282844,12231956465600,160142.0,52.0
3754,37540.0,1790707282856,12231967540000,160144.0,41.0
3755,37550.0,1790707282864,12231976437400,160198.0,32.0
3756,37560.0,1790707282874,12231985993800,160176.0,47.0
3757,37570.0,1790707282883,12231995404500,160217.0,22.0
3758,37580.0,1790707282899,12232010525600,160140.0,50.0
3759,37590.0,1790707282959,12232071192600,159954.0,55.0
3760,37600.0,1790707283009,12232121427700,159754.0,40.0
3761,37610.0,1790707283011,12232122849300,159673.0,50.0
3762,37620.0,1790707283012,12232124056100,159600.0,50.0
3763,37630.0,1790707283013,12232125286500,159628.0,49.0
3764,37640.0,1790707283015,12232126593700,159591.0,46.0
3765,37650.0,1790707283016,12232127794700,159649.0,44.0
3766,37660.0,1790707283017,12232129001200,159662.0,54.0
3767,37670.0,1790707283018,12232130217500,159678.0,47.0
3768,37680.0,1790707283019,12232131392400,159665.0,55.0
3769,37690.0,1790707283022,12232133537100,159689.0,40.0
3770,37700.0,1790707283023,12232135143500,159654.0,62.0
3771,37710.0,1790707283024,12232136344400,159633.0,46.0
3772,37720.0,1790707283033,12232145429900,159596.0,42.0
3773,37730.0,1790707283043,12232155430900,159562.0,44.0
3774,37740.0,1790707283054,12232165534400,159479.0,41.0
3775,37750.0,1790707283063,12232175394500,159429.0,44.0
3776,37760.0,1790707283074,12232185477500,159368.0,40.0
3777,37770.0,1790707283084,12232195473500,159386.0,29.0
3778,37780.0,1790707283094,12232205708400,159351.0,53.0
3779,37790.0,1790707283104,12232215884000,159395.0,42.0
3780,37800.0,1790707283114,12232225664300,159439.0,46.0
3781,37810.0,1790707283124,12232236354300,159520.0,61.0
3782,37820.0,1790707283134,12232245745500,159474.0,52.0
3783,37830.0,1790707283144,12232255806500,159446.0,56.0
3784,37840.0,1790707283154,12232265531100,159380.0,44.0
3785,37850.0,1790707283164,12232275500600,159441.0,56.0
3786,37860.0,1790707283174,12232285727600,159370.0,46.0
3787,37870.0,1790707283184,12232295574500,159402.0,39.0
3788,37880.0,1790707283194,12232305576300,159371.0,58.0
3789,37890.0,1790707283204,12232315626400,159388.0,50.0
3790,37900.0,1790707283214,12232325734100,159432.0,44.0
3791,37910.0,1790707283224,12232335734400,159454.0,51.0
3792,37920.0,1790707283234,12232345689200,159487.0,60.0
3793,37930.0,1790707283244,12232355823400,159497.0,49.0
3794,37940.0,1790707283254,12232365799500,159522.0,56.0
3795,37950.0,1790707283264,12232375824000,159601.0,55.0
3796,37960.0,1790707283274,12232385854700,159597.0,58.0
3797,37970.0,1790707283286,12232397481000,159595.0,57.0
3798,37980.0,1790707283296,12232407491800,159546.0,42.0
3799,37990.0,1790707283306,12232417705100,159524.0,43.0
3800,38000.0,1790707283315,12232426693100,159495.0,41.0
3801,38010.0,1790707283325,12232436823600,159499.0,59.0
3802,38020.0,1790707283334,12232446308900,159513.0,54.0
3803,38030.0,1790707283344,12232456287400,159507.0,48.0
3804,38040.0,1790707283354,12232466168200,159502.0,51.0
3805,38050.0,1790707283365,12232477468300,159480.0,45.0
3806,38060.0,1790707283376,12232487976600,159441.0,50.0
3807,38070.0,1790707283385,12232496568300,159427.0,53.0
3808,38080.0,1790707283394,12232506318200,159430.0,46.0
3809,38090.0,1790707283404,12232516063400,159426.0,48.0
3810,38100.0,1790707283414,12232526155800,159460.0,38.0
3811,38110.0,1790707283425,12232536633600,159516.0,49.0
3812,38120.0,1790707283436,12232547543700,159555.0,64.0
3813,38130.0,1790707283446,12232557686200,159589.0,52.0
3814,38140.0,1790707283455,12232566971900,159629.0,41.0
3815,38150.0,1790707283464,12232576268100,159657.0,59.0
3816,38160.0,1790707283474,12232586300200,159686.0,51.0
3817,38170.0,1790707283484,12232596251400,159716.0,55.0
3818,38180.0,1790707283494,12232606449200,159735.0,40.0
3819,38190.0,1790707283505,12232616563000,159753.0,52.0
3820,38200.0,1790707283515,12232626856200,159840.0,48.0
3821,38210.0,1790707283525,12232636533100,159920.0,55.0
3822,38220.0,1790707283535,12232646715500,160025.0,53.0
3823,38230.0,1790707283544,12232656338500,160115.0,46.0
3824,38240.0,1790707283555,12232666647900,160181.0,50.0
3825,38250.0,1790707283565,12232676985200,160226.0,34.0
3826,38260.0,1790707283575,12232686839400,160258.0,40.0
3827,38270.0,1790707283587,12232698951800,160220.0,49.0
3828,38280.0,1790707283596,12232708120100,160192.0,38.0
3829,38290.0,1790707283605,12232717222200,160128.0,46.0
3830,38300.0,1790707283615,12232726898900,160058.0,27.0
3831,38310.0,1790707283625,12232736820100,160011.0,35.0
3832,38320.0,1790707283635,12232747268600,159998.0,56.0
3833,38330.0,1790707283645,12232757017100,159969.0,42.0
3834,38340.0,1790707283655,12232766898500,159971.0,46.0
3835,38350.0,1790707283665,12232777223000,159907.0,31.0
3836,38360.0,1790707283675,12232787265800,159869.0,54.0
3837,38370.0,1790707283685,12232797251600,159786.0,51.0
3838,38380.0,1790707283695,12232806959600,159751.0,41.0
3839,38390.0,1790707283705,12232817241900,159657.0,27.0
3840,38400.0,1790707283715,12232827144200,159583.0,43.0
3841,38410.0,1790707283725,12232837349400,159472.0,38.0
3842,38420.0,1790707283736,12232847506000,159384.0,41.0
3843,38430.0,1790707283746,12232857557500,159298.0,56.0
3844,38440.0,1790707283755,12232867247000,159277.0,64.0
3845,38450.0,1790707283765,12232877226300,159207.0,51.0
3846,38460.0,1790707283775,12232887314100,159152.0,41.0
3847,38470.0,1790707283785,12232897397300,159112.0,44.0
3848,38480.0,1790707283795,12232907390400,159100.0,45.0
3849,38490.0,1790707283805,12232917107600,159051.0,39.0
3850,38500.0,1790707283815,12232927187300,159055.0,31.0
3851,38510.0,1790707283825,12232937226400,159026.0,38.0
3852,38520.0,1790707283835,12232947127200,159133.0,47.0
3853,38530.0,1790707283845,12232957155300,159169.0,51.0
3854,38540.0,1790707283856,12232967932400,159282.0,46.0
3855,38550.0,1790707283866,12232977734300,159330.0,36.0
3856,38560.0,1790707283875,12232987383600,159420.0,33.0
3857,38570.0,1790707283885,12232997214200,159452.0,37.0
3858,38580.0,1790707283895,12233007291600,159535.0,36.0
3859,38590.0,1790707283912,12233024185500,159518.0,32.0
3860,38600.0,1790707283917,12233028892600,159520.0,42.0
3861,38610.0,1790707283996,12233107655400,159467.0,38.0
3862,38620.0,1790707284073,12233184636400,159419.0,36.0
3863,38630.0,1790707284074,12233186197800,159309.0,34.0
3864,38640.0,1790707284076,12233187551700,159231.0,44.0
3865,38650.0,1790707284078,12233190043900,159199.0,34.0
3866,38660.0,1790707284080,12233192068400,159209.0,50.0
3867,38670.0,1790707284081,12233193352700,159270.0,32.0
3868,38680.0,1790707284083,12233194587000,159226.0,40.0
3869,38690.0,1790707284084,12233195780000,159187.0,38.0
3870,38700.0,1790707284085,12233197063200,159229.0,29.0
3871,38710.0,1790707284087,12233198763900,159149.0,43.0
3872,38720.0,1790707284093,12233205006500,159211.0,48.0
3873,38730.0,1790707284095,12233206619700,159212.0,42.0
3874,38740.0,1790707284096,12233208286700,159311.0,39.0
3875,38750.0,1790707284098,12233209537800,159317.0,30.0
3876,38760.0,1790707284099,12233210785200,159391.0,39.0
3877,38770.0,1790707284100,12233212093200,159426.0,40.0
3878,38780.0,1790707284102,12233213541100,159568.0,40.0
3879,38790.0,1790707284106,12233217702300,159599.0,31.0
3880,38800.0,1790707284116,12233227766900,159660.0,45.0
3881,38810.0,1790707284126,12233237744300,159649.0,29.0
3882,38820.0,1790707284136,12233247927800,159679.0,41.0
3883,38830.0,1790707284146,12233257860200,159636.0,53.0
3884,38840.0,1790707284156,12233267860900,159723.0,52.0
3885,38850.0,1790707284166,12233277855000,159748.0,50.0
3886,38860.0,1790707284176,12233287528900,159865.0,42.0
3887,38870.0,1790707284186,12233297766700,159917.0,39.0
3888,38880.0,1790707284196,12233307661400,160011.0,37.0
3889,38890.0,1790707284206,12233317849200,160030.0,29.0
3890,38900.0,1790707284216,12233327693000,160043.0,49.0
3891,38910.0,1790707284226,12233337929800,159966.0,47.0
3892,38920.0,1790707284236,12233348058100,159937.0,41.0
3893,38930.0,1790707284246,12233357990900,159876.0,39.0
3894,38940.0,1790707284256,12233367876200,159864.0,39.0
3895,38950.0,1790707284266,12233378022400,159805.0,33.0
3896,38960.0,1790707284276,12233387954300,159857.0,37.0
3897,38970.0,1790707284286,12233398023700,159856.0,46.0
3898,38980.0,1790707284296,12233408002100,159918.0,35.0
3899,38990.0,1790707284306,12233418093100,159861.0,47.0
3900,39000.0,1790707284316,12233428106000,159909.0,39.0
3901,39010.0,1790707284328,12233440166500,159823.0,37.0
3902,39020.0,1790707284337,12233448918200,159830.0,29.0
3903,39030.0,1790707284346,12233458294600,159746.0,41.0
3904,39040.0,1790707284357,12233468733100,159815.0,38.0
3905,39050.0,1790707284366,12233478417800,159816.0,43.0
3906,39060.0,1790707284376,12233488372900,159917.0,46.0
3907,39070.0,1790707284387,12233498534900,159972.0,48.0
3908,39080.0,1790707284396,12233508351700,160077.0,35.0
3909,39090.0,1790707284407,12233518525600,160092.0,32.0
3910,39100.0,1790707284416,12233528130700,160185.0,42.0
3911,39110.0,1790707284426,12233538159400,160109.0,38.0
3912,39120.0,1790707284436,12233548161300,160145.0,44.0
3913,39130.0,1790707284446,12233558255300,160085.0,31.0
3914,39140.0,1790707284456,12233568423400,160143.0,37.0
3915,39150.0,1790707284466,12233578304700,160125.0,48.0
3916,39160.0,1790707284476,12233588301000,160219.0,52.0
3917,39170.0,1790707284487,12233598576500,160237.0,43.0
3918,39180.0,1790707284497,12233608957400,160305.0,47.0
3919,39190.0,1790707284507,12233618983900,160208.0,36.0
3920,39200.0,1790707284517,12233628567400,160183.0,42.0
3921,39210.0,1790707284527,12233638507800,160015.0,26.0
3922,39220.0,1790707284539,12233651066200,159922.0,41.0
3923,39230.0,1790707284547,12233659189700,159749.0,36.0
3924,39240.0,1790707284557,12233669272400,159683.0,48.0
3925,39250.0,1790707284567,12233678784900,159488.0,37.0
3926,39260.0,1790707284577,12233688777500,159500.0,53.0
3927,39270.0,1790707284589,12233700963600,159388.0,26.0
3928,39280.0,1790707284597,12233709178700,159427.0,59.0
3929,39290.0,1790707284607,12233719105300,159303.0,47.0
3930,39300.0,1790707284617,12233729060900,159343.0,40.0
3931,39310.0,1790707284627,12233738540400,159245.0,30.0
3932,39320.0,1790707284637,12233749337900,159255.0,47.0
3933,39330.0,1790707284647,12233758711900,159176.0,34.0
3934,39340.0,1790707284658,12233769585200,159198.0,23.0
3935,39350.0,1790707284667,12233779326900,159119.0,56.0
3936,39360.0,1790707284677,12233788763600,159167.0,42.0
3937,39370.0,1790707284687,12233798999900,159128.0,44.0
3938,39380.0,1790707284697,12233808777500,159205.0,42.0
3939,39390.0,1790707284707,12233819195000,159180.0,36.0
3940,39400.0,1790707284717,12233829105200,159303.0,43.0
3941,39410.0,1790707284727,12233839279700,159267.0,38.0
3942,39420.0,1790707284737,12233848931000,159355.0,38.0
3943,39430.0,1790707284747,12233859368900,159326.0,41.0
3944,39440.0,1790707284757,12233869037500,159428.0,29.0
3945,39450.0,1790707284767,12233879032300,159422.0,34.0
3946,39460.0,1790707284777,12233889064600,159579.0,35.0
3947,39470.0,1790707284787,12233899174000,159661.0,43.0
3948,39480.0,1790707284798,12233909518400,159855.0,45.0
3949,39490.0,1790707284808,12233919563400,159906.0,50.0
3950,39500.0,1790707284817,12233929207900,160010.0,31.0
3951,39510.0,1790707284828,12233939689900,159955.0,51.0
3952,39520.0,1790707284837,12233949107900,160021.0,44.0
3953,39530.0,1790707284848,12233959576000,159969.0,34.0
3954,39540.0,1790707284858,12233969635100,160061.0,42.0
3955,39550.0,1790707284868,12233979916000,160136.0,34.0
3956,39560.0,1790707284878,12233990041400,160280.0,26.0
3957,39570.0,1790707284888,12233999731400,160302.0,46.0
3958,39580.0,1790707284898,12234010179200,160423.0,36.0
3959,39590.0,1790707284915,12234027272700,160414.0,39.0
3960,39600.0,1790707284918,12234029893700,160408.0,43.0
3961,39610.0,1790707285028,12234139879600,160373.0,48.0
3962,39620.0,1790707285032,12234143535200,160501.0,30.0
3963,39630.0,1790707285033,12234144818400,160469.0,36.0
3964,39640.0,1790707285034,12234145954400,160560.0,47.0
3965,39650.0,1790707285035,12234147160700,160449.0,45.0
3966,39660.0,1790707285037,12234148592000,160333.0,46.0
3967,39670.0,1790707285038,12234150042400,160333.0,46.0
3968,39680.0,1790707285039,12234151278500,160440.0,45.0
3969,39690.0,1790707285041,12234152474700,160418.0,41.0
3970,39700.0,1790707285042,12234153570900,160601.0,61.0
3971,39710.0,1790707285043,12234154637700,160615.0,46.0
3972,39720.0,1790707285044,12234155713200,160958.0,35.0
3973,39730.0,1790707285047,12234159333500,161089.0,29.0
3974,39740.0,1790707285057,12234169440900,161372.0,47.0
3975,39750.0,1790707285068,12234179543100,161451.0,42.0
3976,39760.0,1790707285078,12234189561200,161387.0,36.0
3977,39770.0,1790707285088,12234199526500,161047.0,68.0
3978,39780.0,1790707285098,12234209507700,160841.0,44.0
3979,39790.0,1790707285108,12234219592200,160453.0,60.0
3980,39800.0,1790707285118,12234229581100,160371.0,69.0
3981,39810.0,1790707285128,12234239786400,160224.0,33.0
3982,39820.0,1790707285138,12234250020500,160239.0,45.0
3983,39830.0,1790707285148,12234259736200,160196.0,41.0
3984,39840.0,1790707285158,12234269862400,160205.0,35.0
3985,39850.0,1790707285168,12234279851400,160196.0,37.0
3986,39860.0,1790707285178,12234289864500,160298.0,31.0
3987,39870.0,1790707285188,12234300350900,160281.0,51.0
3988,39880.0,1790707285198,12234309927300,160415.0,44.0
3989,39890.0,1790707285208,12234320159200,160369.0,52.0
3990,39900.0,1790707285218,12234330021200,160445.0,38.0
3991,39910.0,1790707285228,12234340123300,160402.0,36.0
3992,39920.0,1790707285238,12234350372500,160453.0,42.0
3993,39930.0,1790707285248,12234359794100,160388.0,45.0
3994,39940.0,1790707285258,12234370036100,160443.0,25.0
3995,39950.0,1790707285268,12234379942400,160347.0,48.0
3996,39960.0,1790707285278,12234389919500,160399.0,40.0
3997,39970.0,1790707285288,12234400306000,160360.0,34.0
3998,39980.0,1790707285298,12234410067800,160476.0,43.0
3999,39990.0,1790707285308,12234420011000,160407.0,44.0
4000,40000.0,1790707285318,12234430112500,160482.0,61.0
4001,40010.0,1790707285328,12234440093900,160394.0,54.0
4002,40020.0,1790707285338,12234450230700,160354.0,40.0
4003,40030.0,1790707285348,12234460222800,160093.0,40.0
4004,40040.0,1790707285358,12234470281800,159996.0,39.0
4005,40050.0,1790707285369,12234480514000,159804.0,18.0
4006,40060.0,1790707285378,12234490283600,159768.0,35.0
4007,40070.0,1790707285388,12234500311200,159608.0,55.0
4008,40080.0,1790707285398,12234510357700,159616.0,46.0
4009,40090.0,1790707285408,12234520416800,159521.0,58.0
4010,40100.0,1790707285418,12234530421400,159569.0,37.0
4011,40110.0,1790707285429,12234540591000,159452.0,51.0
4012,40120.0,1790707285440,12234551528800,159429.0,51.0
4013,40130.0,1790707285449,12234560515200,159351.0,29.0
4014,40140.0,1790707285459,12234570887400,159457.0,42.0
4015,40150.0,1790707285469,12234580639600,159374.0,39.0
4016,40160.0,1790707285479,12234590710800,159418.0,34.0
4017,40170.0,1790707285489,12234600523300,159302.0,25.0
4018,40180.0,1790707285499,12234610469700,159329.0,39.0
4019,40190.0,1790707285509,12234620622900,159224.0,49.0
4020,40200.0,1790707285519,12234630503700,159290.0,40.0
4021,40210.0,1790707285529,12234640564500,159224.0,36.0
4022,40220.0,1790707285541,12234652770400,159300.0,38.0
4023,40230.0,1790707285550,12234662255200,159243.0,47.0
4024,40240.0,1790707285560,12234672085400,159339.0,38.0
4025,40250.0,1790707285570,12234682171400,159208.0,44.0
4026,40260.0,1790707285580,12234692256600,159242.0,34.0
4027,40270.0,1790707285590,12234702324600,159153.0,31.0
4028,40280.0,1790707285601,12234712670100,159231.0,37.0
4029,40290.0,1790707285611,12234722521800,159151.0,46.0
4030,40300.0,1790707285621,12234732809500,159227.0,32.0
4031,40310.0,1790707285631,12234742555300,159202.0,43.0
4032,40320.0,1790707285641,12234752796300,159324.0,42.0
4033,40330.0,1790707285649,12234761249400,159280.0,39.0
4034,40340.0,1790707285659,12234771298700,159385.0,16.0
4035,40350.0,1790707285669,12234781400700,159372.0,29.0
4036,40360.0,1790707285679,12234791304500,159498.0,47.0
4037,40370.0,1790707285690,12234801500900,159476.0,32.0
4038,40380.0,1790707285700,12234811588300,159565.0,32.0
4039,40390.0,1790707285709,12234821451600,159480.0,29.0
4040,40400.0,1790707285720,12234831517600,159477.0,22.0
4041,40410.0,1790707285730,12234841979900,159335.0,46.0
4042,40420.0,1790707285740,12234851591200,159365.0,40.0
4043,40430.0,1790707285750,12234861959500,159306.0,41.0
4044,40440.0,1790707285760,12234871992000,159420.0,46.0
4045,40450.0,1790707285770,12234881657300,159407.0,33.0
4046,40460.0,1790707285780,12234892114500,159545.0,32.0
4047,40470.0,1790707285790,12234901942800,159525.0,35.0
4048,40480.0,1790707285801,12234912833100,159681.0,24.0
4049,40490.0,1790707285810,12234922123800,159722.0,23.0
4050,40500.0,1790707285820,12234931882700,159879.0,18.0
4051,40510.0,1790707285830,12234942219000,159844.0,32.0
4052,40520.0,1790707285840,12234952098800,159902.0,32.0
4053,40530.0,1790707285850,12234962154300,159736.0,29.0
4054,40540.0,1790707285861,12234972555200,159708.0,35.0
4055,40550.0,1790707285870,12234981744000,159498.0,33.0
4056,40560.0,1790707285880,12234992241600,159470.0,28.0
4057,40570.0,1790707285890,12235001976300,159303.0,33.0
4058,40580.0,1790707285915,12235027364700,159283.0,37.0
4059,40590.0,1790707285919,12235030584800,159124.0,27.0
4060,40600.0,1790707285922,12235033605700,159124.0,30.0
4061,40610.0,1790707286046,12235158015200,159056.0,47.0
4062,40620.0,1790707286048,12235160136400,159144.0,40.0
4063,40630.0,1790707286049,12235161463400,159032.0,31.0
4064,40640.0,1790707286051,12235162773000,159325.0,41.0
4065,40650.0,1790707286053,12235164882800,159289.0,18.0
4066,40660.0,1790707286055,12235166891200,159376.0,33.0
4067,40670.0,1790707286057,12235169427600,159289.0,33.0
4068,40680.0,1790707286059,12235170774100,159412.0,36.0
4069,40690.0,1790707286060,12235171963600,159358.0,29.0
4070,40700.0,1790707286061,12235173198400,159463.0,44.0
4071,40710.0,1790707286062,12235174386400,159395.0,35.0
4072,40720.0,1790707286064,12235175574200,159503.0,35.0
4073,40730.0,1790707286065,12235176781700,159478.0,41.0
4074,40740.0,1790707286069,12235180762000,159632.0,29.0
4075,40750.0,1790707286072,12235184455800,159614.0,36.0
4076,40760.0,1790707286080,12235191509500,159765.0,31.0
4077,40770.0,1790707286090,12235202116000,159716.0,25.0
4078,40780.0,1790707286100,12235211692000,159738.0,38.0
4079,40790.0,1790707286110,12235221699900,159602.0,46.0
4080,40800.0,1790707286121,12235232633100,159572.0,38.0
4081,40810.0,1790707286130,12235241746400,159333.0,38.0
4082,40820.0,1790707286140,12235252082900,159206.0,34.0
4083,40830.0,1790707286150,12235261816500,158914.0,36.0
4084,40840.0,1790707286160,12235271978300,158863.0,38.0
4085,40850.0,1790707286171,12235282745300,158691.0,18.0
4086,40860.0,1790707286180,12235291885700,158650.0,33.0
4087,40870.0,1790707286190,12235302161100,158502.0,38.0
4088,40880.0,1790707286200,12235311956700,158538.0,47.0
4089,40890.0,1790707286210,12235322010400,158464.0,49.0
4090,40900.0,1790707286221,12235332645300,158528.0,48.0
4091,40910.0,1790707286230,12235342083100,158441.0,36.0
4092,40920.0,1790707286240,12235352414500,158535.0,47.0
4093,40930.0,1790707286250,12235362168800,158535.0,53.0
4094,40940.0,1790707286260,12235372157300,158609.0,60.0
4095,40950.0,1790707286271,12235382751400,158517.0,51.0
4096,40960.0,1790707286280,12235391977900,158585.0,49.0
4097,40970.0,1790707286290,12235402153000,158492.0,29.0
4098,40980.0,1790707286300,12235412014000,158546.0,22.0
4099,40990.0,1790707286311,12235422540600,158443.0,32.0
4100,41000.0,1790707286321,12235432713600,158561.0,47.0
4101,41010.0,1790707286330,12235442186000,158514.0,39.0
4102,41020.0,1790707286340,12235452201400,158680.0,31.0
4103,41030.0,1790707286350,12235462185300,158688.0,51.0
4104,41040.0,1790707286360,12235472243000,158827.0,38.0
4105,41050.0,1790707286371,12235482541300,158801.0,32.0
4106,41060.0,1790707286380,12235492353600,158949.0,37.0
4107,41070.0,1790707286390,12235502345100,158915.0,33.0
4108,41080.0,1790707286400,12235512396700,159062.0,38.0
4109,41090.0,1790707286411,12235522493900,159021.0,23.0
4110,41100.0,1790707286421,12235532471000,159159.0,25.0
4111,41110.0,1790707286431,12235542640200,159123.0,33.0
4112,41120.0,1790707286441,12235552953000,159262.0,40.0
4113,41130.0,1790707286451,12235563026900,159240.0,51.0
4114,41140.0,1790707286461,12235572598800,159350.0,43.0
4115,41150.0,1790707286471,12235582688500,159289.0,33.0
4116,41160.0,1790707286481,12235592494600,159298.0,25.0
4117,41170.0,1790707286491,12235602507000,159091.0,28.0
4118,41180.0,1790707286501,12235612548800,159062.0,28.0
4119,41190.0,1790707286511,12235622486200,158994.0,19.0
4120,41200.0,1790707286521,12235632468600,159142.0,35.0
4121,41210.0,1790707286531,12235642532100,159224.0,29.0
4122,41220.0,1790707286541,12235652506300,159422.0,46.0
4123,41230.0,1790707286551,12235662838700,159507.0,33.0
4124,41240.0,1790707286561,12235672754500,159721.0,46.0
4125,41250.0,1790707286572,12235684221600,159785.0,47.0
4126,41260.0,1790707286582,12235694110500,159952.0,27.0
4127,41270.0,1790707286592,12235704097600,159918.0,38.0
4128,41280.0,1790707286603,12235714654500,159978.0,35.0
4129,41290.0,1790707286613,12235724732000,159845.0,52.0
4130,41300.0,1790707286622,12235734352800,159803.0,49.0
4131,41310.0,1790707286633,12235744900800,159624.0,40.0
4132,41320.0,1790707286642,12235754406600,159553.0,33.0
4133,41330.0,1790707286653,12235764634100,159342.0,36.0
4134,41340.0,1790707286662,12235774254000,159264.0,44.0
4135,41350.0,1790707286672,12235784267900,159012.0,25.0
4136,41360.0,1790707286684,12235795600100,159010.0,29.0
4137,41370.0,1790707286692,12235804293300,158955.0,42.0
4138,41380.0,1790707286703,12235814615600,159068.0,36.0
4139,41390.0,1790707286713,12235824761900,159183.0,41.0
4140,41400.0,1790707286723,12235834576800,159343.0,47.0
4141,41410.0,1790707286733,12235844558400,159342.0,49.0
4142,41420.0,1790707286741,12235853273000,159476.0,42.0
4143,41430.0,1790707286751,12235863299700,159426.0,44.0
4144,41440.0,1790707286762,12235873555100,159579.0,32.0
4145,41450.0,1790707286771,12235883158700,159557.0,43.0
4146,41460.0,1790707286781,12235893398100,159684.0,43.0
4147,41470.0,1790707286791,12235903274900,159645.0,45.0
4148,41480.0,1790707286804,12235915641200,159726.0,28.0
4149,41490.0,1790707286813,12235925205000,159725.0,49.0
4150,41500.0,1790707286822,12235933907100,159879.0,50.0
4151,41510.0,1790707286832,12235943893000,159893.0,38.0
4152,41520.0,1790707286842,12235953486700,160005.0,46.0
4153,41530.0,1790707286852,12235963850300,159964.0,57.0
4154,41540.0,1790707286862,12235973590500,160045.0,48.0
4155,41550.0,1790707286872,12235983723800,159984.0,51.0
4156,41560.0,1790707286881,12235993155800,160036.0,46.0
4157,41570.0,1790707286891,12236003232400,159938.0,38.0
4158,41580.0,1790707286901,12236013408600,159937.0,29.0
4159,41590.0,1790707286912,12236024457800,159824.0,30.0
4160,41600.0,1790707287003,12236114543600,159813.0,32.0
4161,41610.0,1790707287084,12236196128300,159624.0,35.0
4162,41620.0,1790707287087,12236198874900,159504.0,32.0
4163,41630.0,1790707287088,12236200252100,159257.0,46.0
4164,41640.0,1790707287090,12236201638500,159096.0,43.0
4165,41650.0,1790707287091,12236203093100,158810.0,47.0
4166,41660.0,1790707287094,12236206009800,158692.0,50.0
4167,41670.0,1790707287096,12236207736700,158493.0,44.0
4168,41680.0,1790707287097,12236209084000,158477.0,39.0
4169,41690.0,1790707287098,12236210416500,158395.0,42.0
4170,41700.0,1790707287100,12236211717000,158427.0,35.0
4171,41710.0,1790707287102,12236213751900,158378.0,41.0
4172,41720.0,1790707287105,12236216651500,158449.0,45.0
4173,41730.0,1790707287106,12236217994700,158439.0,42.0
4174,41740.0,1790707287107,12236219291300,158576.0,46.0
4175,41750.0,1790707287109,12236220650500,158627.0,59.0
4176,41760.0,1790707287110,12236222380600,158782.0,43.0
4177,41770.0,1790707287112,12236223815700,158854.0,30.0
4178,41780.0,1790707287113,12236225252600,159029.0,28.0
4179,41790.0,1790707287115,12236226467000,159124.0,32.0
4180,41800.0,1790707287122,12236234108400,159208.0,44.0
4181,41810.0,1790707287132,12236243729700,159192.0,46.0
4182,41820.0,1790707287142,12236253769000,159298.0,45.0
4183,41830.0,1790707287153,12236265021500,159298.0,40.0
4184,41840.0,1790707287162,12236273874600,159420.0,42.0
4185,41850.0,1790707287172,12236283910700,159415.0,56.0
4186,41860.0,1790707287182,12236293945600,159493.0,31.0
4187,41870.0,1790707287192,12236303964300,159472.0,41.0
4188,41880.0,1790707287202,12236313973700,159554.0,48.0
4189,41890.0,1790707287212,12236324067500,159458.0,36.0
4190,41900.0,1790707287222,12236334042400,159492.0,34.0
4191,41910.0,1790707287232,12236344112700,159461.0,33.0
4192,41920.0,1790707287242,12236354137800,159473.0,44.0
4193,41930.0,1790707287252,12236364192500,159393.0,44.0
4194,41940.0,1790707287262,12236374266400,159490.0,53.0
4195,41950.0,1790707287272,12236384260000,159526.0,51.0
4196,41960.0,1790707287282,12236394301100,159667.0,46.0
4197,41970.0,1790707287292,12236404315800,159680.0,40.0
4198,41980.0,1790707287302,12236414034500,159833.0,36.0
4199,41990.0,1790707287312,12236424083200,159878.0,37.0
4200,42000.0,1790707287322,12236434127800,160010.0,35.0
4201,42010.0,1790707287332,12236444148700,160040.0,24.0
4202,42020.0,1790707287342,12236454280500,160184.0,37.0
4203,42030.0,1790707287352,12236464354900,160251.0,44.0
4204,42040.0,1790707287363,12236474670700,160411.0,35.0
4205,42050.0,1790707287373,12236484629700,160546.0,56.0
4206,42060.0,1790707287383,12236494622100,160744.0,41.0
4207,42070.0,1790707287393,12236504890900,160826.0,48.0
4208,42080.0,1790707287403,12236514846000,161012.0,55.0
4209,42090.0,1790707287413,12236524486700,161091.0,34.0
4210,42100.0,1790707287423,12236534546800,161253.0,37.0
4211,42110.0,1790707287433,12236544522300,161247.0,35.0
4212,42120.0,1790707287443,12236554807100,161299.0,31.0
4213,42130.0,1790707287453,12236564646300,161242.0,58.0
4214,42140.0,1790707287463,12236574557600,161263.0,49.0
4215,42150.0,1790707287473,12236584617200,161153.0,42.0
4216,42160.0,1790707287483,12236594630200,161152.0,44.0
4217,42170.0,1790707287493,12236604722100,161036.0,53.0
4218,42180.0,1790707287503,12236614508100,160978.0,45.0
4219,42190.0,1790707287513,12236624517500,160859.0,26.0
4220,42200.0,1790707287523,12236634471100,160866.0,51.0
4221,42210.0,1790707287533,12236644637200,160810.0,50.0
4222,42220.0,1790707287543,12236654563300,160844.0,43.0
4223,42230.0,1790707287553,12236664578600,160824.0,43.0
4224,42240.0,1790707287563,12236674612000,160910.0,36.0
4225,42250.0,1790707287573,12236684659200,160942.0,49.0
4226,42260.0,1790707287584,12236695703200,161007.0,45.0
4227,42270.0,1790707287593,12236704818000,160939.0,59.0
4228,42280.0,1790707287603,12236714808900,160887.0,50.0
4229,42290.0,1790707287613,12236724942100,160848.0,43.0
4230,42300.0,1790707287623,12236735157400,160920.0,40.0
4231,42310.0,1790707287634,12236745535900,160846.0,43.0
4232,42320.0,1790707287643,12236755122600,160899.0,36.0
4233,42330.0,1790707287653,12236765074700,160937.0,36.0
4234,42340.0,1790707287663,12236775418500,161045.0,35.0
4235,42350.0,1790707287674,12236785649000,161139.0,26.0
4236,42360.0,1790707287684,12236795483100,161315.0,55.0
4237,42370.0,1790707287694,12236805582200,161353.0,57.0
4238,42380.0,1790707287704,12236815480400,161409.0,47.0
